3751 2
45590.000000 0.075000
45590.004000 -0.130000
45590.008000 -0.470000
45590.012000 -0.855000
45590.016000 -1.210000
45590.020000 -1.540000
45590.024000 -1.890000
45590.028000 -2.210000
45590.032000 -2.445000
45590.036000 -2.560000
45590.040000 -2.510000
45590.044000 -2.200000
45590.048000 -1.785000
45590.052000 -1.410000
45590.056000 -1.140000
45590.060000 -0.955000
45590.064000 -0.780000
45590.068000 -0.710000
45590.072000 -0.610000
45590.076000 -0.550000
45590.080000 -0.510000
45590.084000 -0.480000
45590.088000 -0.425000
45590.092000 -0.425000
45590.096000 -0.390000
45590.100000 -0.370000
45590.104000 -0.380000
45590.108000 -0.365000
45590.112000 -0.320000
45590.116000 -0.320000
45590.120000 -0.335000
45590.124000 -0.340000
45590.128000 -0.330000
45590.132000 -0.325000
45590.136000 -0.310000
45590.140000 -0.310000
45590.144000 -0.300000
45590.148000 -0.275000
45590.152000 -0.265000
45590.156000 -0.225000
45590.160000 -0.210000
45590.164000 -0.195000
45590.168000 -0.175000
45590.172000 -0.165000
45590.176000 -0.140000
45590.180000 -0.120000
45590.184000 -0.115000
45590.188000 -0.070000
45590.192000 -0.055000
45590.196000 -0.050000
45590.200000 -0.030000
45590.204000 -0.025000
45590.208000 -0.005000
45590.212000 -0.005000
45590.216000 -0.020000
45590.220000 -0.015000
45590.224000 0.015000
45590.228000 0.000000
45590.232000 0.015000
45590.236000 0.000000
45590.240000 -0.040000
45590.244000 -0.045000
45590.248000 -0.065000
45590.252000 -0.065000
45590.256000 -0.095000
45590.260000 -0.115000
45590.264000 -0.130000
45590.268000 -0.135000
45590.272000 -0.150000
45590.276000 -0.190000
45590.280000 -0.210000
45590.284000 -0.250000
45590.288000 -0.275000
45590.292000 -0.305000
45590.296000 -0.315000
45590.300000 -0.330000
45590.304000 -0.345000
45590.308000 -0.365000
45590.312000 -0.370000
45590.316000 -0.380000
45590.320000 -0.380000
45590.324000 -0.375000
45590.328000 -0.385000
45590.332000 -0.400000
45590.336000 -0.405000
45590.340000 -0.390000
45590.344000 -0.385000
45590.348000 -0.405000
45590.352000 -0.395000
45590.356000 -0.375000
45590.360000 -0.360000
45590.364000 -0.365000
45590.368000 -0.325000
45590.372000 -0.270000
45590.376000 -0.250000
45590.380000 -0.240000
45590.384000 -0.235000
45590.388000 -0.225000
45590.392000 -0.220000
45590.396000 -0.240000
45590.400000 -0.320000
45590.404000 -0.345000
45590.408000 -0.350000
45590.412000 -0.365000
45590.416000 -0.390000
45590.420000 -0.415000
45590.424000 -0.425000
45590.428000 -0.435000
45590.432000 -0.430000
45590.436000 -0.410000
45590.440000 -0.425000
45590.444000 -0.425000
45590.448000 -0.420000
45590.452000 -0.420000
45590.456000 -0.445000
45590.460000 -0.450000
45590.464000 -0.460000
45590.468000 -0.450000
45590.472000 -0.465000
45590.476000 -0.465000
45590.480000 -0.475000
45590.484000 -0.480000
45590.488000 -0.445000
45590.492000 -0.475000
45590.496000 -0.465000
45590.500000 -0.480000
45590.504000 -0.490000
45590.508000 -0.485000
45590.512000 -0.500000
45590.516000 -0.500000
45590.520000 -0.500000
45590.524000 -0.475000
45590.528000 -0.485000
45590.532000 -0.470000
45590.536000 -0.455000
45590.540000 -0.440000
45590.544000 -0.420000
45590.548000 -0.425000
45590.552000 -0.400000
45590.556000 -0.380000
45590.560000 -0.385000
45590.564000 -0.290000
45590.568000 -0.150000
45590.572000 -0.060000
45590.576000 -0.135000
45590.580000 -0.365000
45590.584000 -0.715000
45590.588000 -1.080000
45590.592000 -1.430000
45590.596000 -1.785000
45590.600000 -2.050000
45590.604000 -2.280000
45590.608000 -2.415000
45590.612000 -2.440000
45590.616000 -2.255000
45590.620000 -1.920000
45590.624000 -1.565000
45590.628000 -1.310000
45590.632000 -1.115000
45590.636000 -0.970000
45590.640000 -0.870000
45590.644000 -0.795000
45590.648000 -0.700000
45590.652000 -0.655000
45590.656000 -0.635000
45590.660000 -0.565000
45590.664000 -0.570000
45590.668000 -0.560000
45590.672000 -0.545000
45590.676000 -0.495000
45590.680000 -0.515000
45590.684000 -0.490000
45590.688000 -0.480000
45590.692000 -0.460000
45590.696000 -0.470000
45590.700000 -0.450000
45590.704000 -0.450000
45590.708000 -0.425000
45590.712000 -0.435000
45590.716000 -0.420000
45590.720000 -0.415000
45590.724000 -0.400000
45590.728000 -0.385000
45590.732000 -0.370000
45590.736000 -0.360000
45590.740000 -0.340000
45590.744000 -0.310000
45590.748000 -0.280000
45590.752000 -0.260000
45590.756000 -0.240000
45590.760000 -0.240000
45590.764000 -0.200000
45590.768000 -0.230000
45590.772000 -0.205000
45590.776000 -0.195000
45590.780000 -0.175000
45590.784000 -0.155000
45590.788000 -0.155000
45590.792000 -0.145000
45590.796000 -0.135000
45590.800000 -0.145000
45590.804000 -0.140000
45590.808000 -0.100000
45590.812000 -0.120000
45590.816000 -0.130000
45590.820000 -0.155000
45590.824000 -0.165000
45590.828000 -0.190000
45590.832000 -0.210000
45590.836000 -0.230000
45590.840000 -0.255000
45590.844000 -0.275000
45590.848000 -0.300000
45590.852000 -0.315000
45590.856000 -0.330000
45590.860000 -0.345000
45590.864000 -0.370000
45590.868000 -0.375000
45590.872000 -0.430000
45590.876000 -0.410000
45590.880000 -0.425000
45590.884000 -0.420000
45590.888000 -0.440000
45590.892000 -0.460000
45590.896000 -0.470000
45590.900000 -0.475000
45590.904000 -0.475000
45590.908000 -0.480000
45590.912000 -0.480000
45590.916000 -0.470000
45590.920000 -0.465000
45590.924000 -0.470000
45590.928000 -0.480000
45590.932000 -0.490000
45590.936000 -0.485000
45590.940000 -0.455000
45590.944000 -0.450000
45590.948000 -0.420000
45590.952000 -0.390000
45590.956000 -0.360000
45590.960000 -0.345000
45590.964000 -0.340000
45590.968000 -0.345000
45590.972000 -0.390000
45590.976000 -0.445000
45590.980000 -0.470000
45590.984000 -0.505000
45590.988000 -0.515000
45590.992000 -0.530000
45590.996000 -0.520000
45591.000000 -0.515000
45591.004000 -0.520000
45591.008000 -0.515000
45591.012000 -0.525000
45591.016000 -0.520000
45591.020000 -0.520000
45591.024000 -0.530000
45591.028000 -0.525000
45591.032000 -0.510000
45591.036000 -0.520000
45591.040000 -0.525000
45591.044000 -0.510000
45591.048000 -0.515000
45591.052000 -0.525000
45591.056000 -0.525000
45591.060000 -0.525000
45591.064000 -0.545000
45591.068000 -0.545000
45591.072000 -0.525000
45591.076000 -0.515000
45591.080000 -0.525000
45591.084000 -0.540000
45591.088000 -0.510000
45591.092000 -0.520000
45591.096000 -0.550000
45591.100000 -0.505000
45591.104000 -0.490000
45591.108000 -0.495000
45591.112000 -0.495000
45591.116000 -0.465000
45591.120000 -0.460000
45591.124000 -0.450000
45591.128000 -0.425000
45591.132000 -0.425000
45591.136000 -0.405000
45591.140000 -0.365000
45591.144000 -0.260000
45591.148000 -0.145000
45591.152000 -0.100000
45591.156000 -0.220000
45591.160000 -0.460000
45591.164000 -0.795000
45591.168000 -1.115000
45591.172000 -1.440000
45591.176000 -1.785000
45591.180000 -2.000000
45591.184000 -2.215000
45591.188000 -2.390000
45591.192000 -2.450000
45591.196000 -2.275000
45591.200000 -1.945000
45591.204000 -1.590000
45591.208000 -1.325000
45591.212000 -1.110000
45591.216000 -0.985000
45591.220000 -0.860000
45591.224000 -0.775000
45591.228000 -0.700000
45591.232000 -0.645000
45591.236000 -0.615000
45591.240000 -0.580000
45591.244000 -0.570000
45591.248000 -0.545000
45591.252000 -0.515000
45591.256000 -0.515000
45591.260000 -0.505000
45591.264000 -0.490000
45591.268000 -0.480000
45591.272000 -0.465000
45591.276000 -0.465000
45591.280000 -0.475000
45591.284000 -0.480000
45591.288000 -0.450000
45591.292000 -0.450000
45591.296000 -0.435000
45591.300000 -0.425000
45591.304000 -0.410000
45591.308000 -0.405000
45591.312000 -0.390000
45591.316000 -0.365000
45591.320000 -0.355000
45591.324000 -0.335000
45591.328000 -0.320000
45591.332000 -0.295000
45591.336000 -0.285000
45591.340000 -0.270000
45591.344000 -0.265000
45591.348000 -0.240000
45591.352000 -0.220000
45591.356000 -0.210000
45591.360000 -0.195000
45591.364000 -0.180000
45591.368000 -0.155000
45591.372000 -0.165000
45591.376000 -0.155000
45591.380000 -0.155000
45591.384000 -0.170000
45591.388000 -0.175000
45591.392000 -0.170000
45591.396000 -0.165000
45591.400000 -0.205000
45591.404000 -0.200000
45591.408000 -0.205000
45591.412000 -0.205000
45591.416000 -0.240000
45591.420000 -0.245000
45591.424000 -0.265000
45591.428000 -0.310000
45591.432000 -0.330000
45591.436000 -0.345000
45591.440000 -0.350000
45591.444000 -0.375000
45591.448000 -0.375000
45591.452000 -0.415000
45591.456000 -0.460000
45591.460000 -0.435000
45591.464000 -0.455000
45591.468000 -0.490000
45591.472000 -0.520000
45591.476000 -0.520000
45591.480000 -0.530000
45591.484000 -0.510000
45591.488000 -0.500000
45591.492000 -0.515000
45591.496000 -0.535000
45591.500000 -0.515000
45591.504000 -0.495000
45591.508000 -0.485000
45591.512000 -0.450000
45591.516000 -0.440000
45591.520000 -0.420000
45591.524000 -0.405000
45591.528000 -0.365000
45591.532000 -0.330000
45591.536000 -0.330000
45591.540000 -0.310000
45591.544000 -0.305000
45591.548000 -0.305000
45591.552000 -0.350000
45591.556000 -0.395000
45591.560000 -0.425000
45591.564000 -0.465000
45591.568000 -0.470000
45591.572000 -0.460000
45591.576000 -0.455000
45591.580000 -0.470000
45591.584000 -0.450000
45591.588000 -0.450000
45591.592000 -0.460000
45591.596000 -0.455000
45591.600000 -0.450000
45591.604000 -0.460000
45591.608000 -0.460000
45591.612000 -0.465000
45591.616000 -0.470000
45591.620000 -0.485000
45591.624000 -0.480000
45591.628000 -0.475000
45591.632000 -0.485000
45591.636000 -0.465000
45591.640000 -0.500000
45591.644000 -0.510000
45591.648000 -0.495000
45591.652000 -0.505000
45591.656000 -0.500000
45591.660000 -0.475000
45591.664000 -0.470000
45591.668000 -0.485000
45591.672000 -0.480000
45591.676000 -0.470000
45591.680000 -0.465000
45591.684000 -0.455000
45591.688000 -0.470000
45591.692000 -0.450000
45591.696000 -0.435000
45591.700000 -0.420000
45591.704000 -0.400000
45591.708000 -0.390000
45591.712000 -0.360000
45591.716000 -0.305000
45591.720000 -0.220000
45591.724000 -0.095000
45591.728000 -0.100000
45591.732000 -0.280000
45591.736000 -0.665000
45591.740000 -1.015000
45591.744000 -1.330000
45591.748000 -1.690000
45591.752000 -2.030000
45591.756000 -2.305000
45591.760000 -2.530000
45591.764000 -2.635000
45591.768000 -2.565000
45591.772000 -2.265000
45591.776000 -1.890000
45591.780000 -1.520000
45591.784000 -1.240000
45591.788000 -1.100000
45591.792000 -0.975000
45591.796000 -0.850000
45591.800000 -0.740000
45591.804000 -0.685000
45591.808000 -0.620000
45591.812000 -0.585000
45591.816000 -0.565000
45591.820000 -0.535000
45591.824000 -0.530000
45591.828000 -0.490000
45591.832000 -0.485000
45591.836000 -0.465000
45591.840000 -0.450000
45591.844000 -0.430000
45591.848000 -0.440000
45591.852000 -0.435000
45591.856000 -0.445000
45591.860000 -0.430000
45591.864000 -0.415000
45591.868000 -0.385000
45591.872000 -0.385000
45591.876000 -0.370000
45591.880000 -0.350000
45591.884000 -0.330000
45591.888000 -0.310000
45591.892000 -0.270000
45591.896000 -0.230000
45591.900000 -0.220000
45591.904000 -0.200000
45591.908000 -0.170000
45591.912000 -0.160000
45591.916000 -0.120000
45591.920000 -0.110000
45591.924000 -0.090000
45591.928000 -0.070000
45591.932000 -0.035000
45591.936000 -0.030000
45591.940000 -0.055000
45591.944000 -0.030000
45591.948000 -0.030000
45591.952000 -0.035000
45591.956000 -0.010000
45591.960000 -0.010000
45591.964000 -0.015000
45591.968000 -0.035000
45591.972000 -0.010000
45591.976000 -0.040000
45591.980000 -0.055000
45591.984000 -0.100000
45591.988000 -0.105000
45591.992000 -0.130000
45591.996000 -0.175000
45592.000000 -0.190000
45592.004000 -0.215000
45592.008000 -0.250000
45592.012000 -0.255000
45592.016000 -0.275000
45592.020000 -0.300000
45592.024000 -0.300000
45592.028000 -0.310000
45592.032000 -0.345000
45592.036000 -0.345000
45592.040000 -0.365000
45592.044000 -0.380000
45592.048000 -0.370000
45592.052000 -0.395000
45592.056000 -0.400000
45592.060000 -0.400000
45592.064000 -0.395000
45592.068000 -0.405000
45592.072000 -0.390000
45592.076000 -0.415000
45592.080000 -0.395000
45592.084000 -0.385000
45592.088000 -0.370000
45592.092000 -0.355000
45592.096000 -0.330000
45592.100000 -0.300000
45592.104000 -0.245000
45592.108000 -0.240000
45592.112000 -0.245000
45592.116000 -0.225000
45592.120000 -0.260000
45592.124000 -0.245000
45592.128000 -0.280000
45592.132000 -0.330000
45592.136000 -0.335000
45592.140000 -0.370000
45592.144000 -0.400000
45592.148000 -0.415000
45592.152000 -0.430000
45592.156000 -0.415000
45592.160000 -0.440000
45592.164000 -0.435000
45592.168000 -0.430000
45592.172000 -0.425000
45592.176000 -0.450000
45592.180000 -0.460000
45592.184000 -0.465000
45592.188000 -0.470000
45592.192000 -0.460000
45592.196000 -0.460000
45592.200000 -0.460000
45592.204000 -0.445000
45592.208000 -0.465000
45592.212000 -0.480000
45592.216000 -0.470000
45592.220000 -0.490000
45592.224000 -0.475000
45592.228000 -0.480000
45592.232000 -0.485000
45592.236000 -0.480000
45592.240000 -0.465000
45592.244000 -0.465000
45592.248000 -0.465000
45592.252000 -0.475000
45592.256000 -0.480000
45592.260000 -0.465000
45592.264000 -0.430000
45592.268000 -0.395000
45592.272000 -0.375000
45592.276000 -0.380000
45592.280000 -0.380000
45592.284000 -0.340000
45592.288000 -0.290000
45592.292000 -0.150000
45592.296000 -0.040000
45592.300000 -0.135000
45592.304000 -0.425000
45592.308000 -0.830000
45592.312000 -1.210000
45592.316000 -1.560000
45592.320000 -1.930000
45592.324000 -2.265000
45592.328000 -2.525000
45592.332000 -2.700000
45592.336000 -2.755000
45592.340000 -2.625000
45592.344000 -2.255000
45592.348000 -1.830000
45592.352000 -1.495000
45592.356000 -1.230000
45592.360000 -1.070000
45592.364000 -0.935000
45592.368000 -0.815000
45592.372000 -0.750000
45592.376000 -0.680000
45592.380000 -0.650000
45592.384000 -0.615000
45592.388000 -0.580000
45592.392000 -0.560000
45592.396000 -0.540000
45592.400000 -0.520000
45592.404000 -0.520000
45592.408000 -0.510000
45592.412000 -0.505000
45592.416000 -0.495000
45592.420000 -0.485000
45592.424000 -0.500000
45592.428000 -0.510000
45592.432000 -0.475000
45592.436000 -0.465000
45592.440000 -0.450000
45592.444000 -0.450000
45592.448000 -0.425000
45592.452000 -0.410000
45592.456000 -0.375000
45592.460000 -0.380000
45592.464000 -0.355000
45592.468000 -0.320000
45592.472000 -0.295000
45592.476000 -0.310000
45592.480000 -0.295000
45592.484000 -0.250000
45592.488000 -0.230000
45592.492000 -0.215000
45592.496000 -0.195000
45592.500000 -0.215000
45592.504000 -0.195000
45592.508000 -0.190000
45592.512000 -0.185000
45592.516000 -0.180000
45592.520000 -0.190000
45592.524000 -0.150000
45592.528000 -0.195000
45592.532000 -0.180000
45592.536000 -0.165000
45592.540000 -0.195000
45592.544000 -0.230000
45592.548000 -0.225000
45592.552000 -0.240000
45592.556000 -0.265000
45592.560000 -0.270000
45592.564000 -0.280000
45592.568000 -0.320000
45592.572000 -0.340000
45592.576000 -0.355000
45592.580000 -0.390000
45592.584000 -0.385000
45592.588000 -0.415000
45592.592000 -0.435000
45592.596000 -0.455000
45592.600000 -0.460000
45592.604000 -0.490000
45592.608000 -0.505000
45592.612000 -0.515000
45592.616000 -0.535000
45592.620000 -0.525000
45592.624000 -0.530000
45592.628000 -0.545000
45592.632000 -0.535000
45592.636000 -0.535000
45592.640000 -0.535000
45592.644000 -0.530000
45592.648000 -0.520000
45592.652000 -0.530000
45592.656000 -0.505000
45592.660000 -0.465000
45592.664000 -0.460000
45592.668000 -0.445000
45592.672000 -0.400000
45592.676000 -0.375000
45592.680000 -0.365000
45592.684000 -0.340000
45592.688000 -0.345000
45592.692000 -0.350000
45592.696000 -0.385000
45592.700000 -0.405000
45592.704000 -0.450000
45592.708000 -0.480000
45592.712000 -0.495000
45592.716000 -0.515000
45592.720000 -0.505000
45592.724000 -0.505000
45592.728000 -0.525000
45592.732000 -0.510000
45592.736000 -0.510000
45592.740000 -0.515000
45592.744000 -0.515000
45592.748000 -0.520000
45592.752000 -0.500000
45592.756000 -0.505000
45592.760000 -0.540000
45592.764000 -0.525000
45592.768000 -0.510000
45592.772000 -0.530000
45592.776000 -0.525000
45592.780000 -0.545000
45592.784000 -0.540000
45592.788000 -0.530000
45592.792000 -0.550000
45592.796000 -0.550000
45592.800000 -0.530000
45592.804000 -0.565000
45592.808000 -0.560000
45592.812000 -0.545000
45592.816000 -0.510000
45592.820000 -0.540000
45592.824000 -0.540000
45592.828000 -0.525000
45592.832000 -0.510000
45592.836000 -0.535000
45592.840000 -0.495000
45592.844000 -0.475000
45592.848000 -0.470000
45592.852000 -0.470000
45592.856000 -0.450000
45592.860000 -0.380000
45592.864000 -0.270000
45592.868000 -0.155000
45592.872000 -0.125000
45592.876000 -0.250000
45592.880000 -0.560000
45592.884000 -0.910000
45592.888000 -1.240000
45592.892000 -1.605000
45592.896000 -1.905000
45592.900000 -2.185000
45592.904000 -2.390000
45592.908000 -2.500000
45592.912000 -2.470000
45592.916000 -2.225000
45592.920000 -1.870000
45592.924000 -1.530000
45592.928000 -1.255000
45592.932000 -1.070000
45592.936000 -0.940000
45592.940000 -0.855000
45592.944000 -0.770000
45592.948000 -0.725000
45592.952000 -0.655000
45592.956000 -0.625000
45592.960000 -0.610000
45592.964000 -0.585000
45592.968000 -0.575000
45592.972000 -0.550000
45592.976000 -0.530000
45592.980000 -0.535000
45592.984000 -0.525000
45592.988000 -0.525000
45592.992000 -0.510000
45592.996000 -0.515000
45593.000000 -0.495000
45593.004000 -0.515000
45593.008000 -0.500000
45593.012000 -0.470000
45593.016000 -0.460000
45593.020000 -0.455000
45593.024000 -0.445000
45593.028000 -0.420000
45593.032000 -0.405000
45593.036000 -0.390000
45593.040000 -0.390000
45593.044000 -0.365000
45593.048000 -0.350000
45593.052000 -0.320000
45593.056000 -0.270000
45593.060000 -0.270000
45593.064000 -0.245000
45593.068000 -0.215000
45593.072000 -0.215000
45593.076000 -0.205000
45593.080000 -0.185000
45593.084000 -0.180000
45593.088000 -0.180000
45593.092000 -0.190000
45593.096000 -0.150000
45593.100000 -0.180000
45593.104000 -0.155000
45593.108000 -0.180000
45593.112000 -0.180000
45593.116000 -0.185000
45593.120000 -0.190000
45593.124000 -0.220000
45593.128000 -0.245000
45593.132000 -0.255000
45593.136000 -0.260000
45593.140000 -0.280000
45593.144000 -0.315000
45593.148000 -0.345000
45593.152000 -0.355000
45593.156000 -0.385000
45593.160000 -0.385000
45593.164000 -0.410000
45593.168000 -0.430000
45593.172000 -0.450000
45593.176000 -0.480000
45593.180000 -0.485000
45593.184000 -0.465000
45593.188000 -0.490000
45593.192000 -0.465000
45593.196000 -0.480000
45593.200000 -0.490000
45593.204000 -0.495000
45593.208000 -0.510000
45593.212000 -0.495000
45593.216000 -0.490000
45593.220000 -0.485000
45593.224000 -0.490000
45593.228000 -0.490000
45593.232000 -0.465000
45593.236000 -0.470000
45593.240000 -0.425000
45593.244000 -0.390000
45593.248000 -0.395000
45593.252000 -0.380000
45593.256000 -0.380000
45593.260000 -0.355000
45593.264000 -0.365000
45593.268000 -0.385000
45593.272000 -0.435000
45593.276000 -0.500000
45593.280000 -0.510000
45593.284000 -0.495000
45593.288000 -0.520000
45593.292000 -0.525000
45593.296000 -0.550000
45593.300000 -0.530000
45593.304000 -0.540000
45593.308000 -0.540000
45593.312000 -0.535000
45593.316000 -0.530000
45593.320000 -0.520000
45593.324000 -0.520000
45593.328000 -0.515000
45593.332000 -0.550000
45593.336000 -0.540000
45593.340000 -0.525000
45593.344000 -0.535000
45593.348000 -0.520000
45593.352000 -0.515000
45593.356000 -0.550000
45593.360000 -0.530000
45593.364000 -0.515000
45593.368000 -0.490000
45593.372000 -0.510000
45593.376000 -0.540000
45593.380000 -0.550000
45593.384000 -0.540000
45593.388000 -0.535000
45593.392000 -0.550000
45593.396000 -0.535000
45593.400000 -0.525000
45593.404000 -0.530000
45593.408000 -0.535000
45593.412000 -0.515000
45593.416000 -0.465000
45593.420000 -0.455000
45593.424000 -0.430000
45593.428000 -0.425000
45593.432000 -0.425000
45593.436000 -0.390000
45593.440000 -0.295000
45593.444000 -0.160000
45593.448000 -0.120000
45593.452000 -0.230000
45593.456000 -0.525000
45593.460000 -0.855000
45593.464000 -1.180000
45593.468000 -1.495000
45593.472000 -1.820000
45593.476000 -2.075000
45593.480000 -2.275000
45593.484000 -2.440000
45593.488000 -2.505000
45593.492000 -2.325000
45593.496000 -1.960000
45593.500000 -1.630000
45593.504000 -1.335000
45593.508000 -1.155000
45593.512000 -1.015000
45593.516000 -0.910000
45593.520000 -0.810000
45593.524000 -0.760000
45593.528000 -0.705000
45593.532000 -0.675000
45593.536000 -0.620000
45593.540000 -0.595000
45593.544000 -0.575000
45593.548000 -0.545000
45593.552000 -0.545000
45593.556000 -0.520000
45593.560000 -0.505000
45593.564000 -0.515000
45593.568000 -0.480000
45593.572000 -0.470000
45593.576000 -0.490000
45593.580000 -0.465000
45593.584000 -0.450000
45593.588000 -0.450000
45593.592000 -0.425000
45593.596000 -0.410000
45593.600000 -0.385000
45593.604000 -0.325000
45593.608000 -0.340000
45593.612000 -0.350000
45593.616000 -0.320000
45593.620000 -0.310000
45593.624000 -0.305000
45593.628000 -0.265000
45593.632000 -0.260000
45593.636000 -0.240000
45593.640000 -0.230000
45593.644000 -0.180000
45593.648000 -0.165000
45593.652000 -0.155000
45593.656000 -0.170000
45593.660000 -0.170000
45593.664000 -0.140000
45593.668000 -0.100000
45593.672000 -0.095000
45593.676000 -0.130000
45593.680000 -0.105000
45593.684000 -0.100000
45593.688000 -0.130000
45593.692000 -0.130000
45593.696000 -0.130000
45593.700000 -0.125000
45593.704000 -0.160000
45593.708000 -0.160000
45593.712000 -0.190000
45593.716000 -0.225000
45593.720000 -0.225000
45593.724000 -0.245000
45593.728000 -0.305000
45593.732000 -0.315000
45593.736000 -0.320000
45593.740000 -0.340000
45593.744000 -0.375000
45593.748000 -0.385000
45593.752000 -0.395000
45593.756000 -0.390000
45593.760000 -0.400000
45593.764000 -0.430000
45593.768000 -0.455000
45593.772000 -0.415000
45593.776000 -0.440000
45593.780000 -0.420000
45593.784000 -0.440000
45593.788000 -0.425000
45593.792000 -0.420000
45593.796000 -0.425000
45593.800000 -0.415000
45593.804000 -0.400000
45593.808000 -0.380000
45593.812000 -0.340000
45593.816000 -0.315000
45593.820000 -0.280000
45593.824000 -0.245000
45593.828000 -0.235000
45593.832000 -0.225000
45593.836000 -0.220000
45593.840000 -0.230000
45593.844000 -0.230000
45593.848000 -0.275000
45593.852000 -0.310000
45593.856000 -0.340000
45593.860000 -0.375000
45593.864000 -0.385000
45593.868000 -0.390000
45593.872000 -0.400000
45593.876000 -0.410000
45593.880000 -0.375000
45593.884000 -0.380000
45593.888000 -0.385000
45593.892000 -0.360000
45593.896000 -0.370000
45593.900000 -0.360000
45593.904000 -0.390000
45593.908000 -0.390000
45593.912000 -0.410000
45593.916000 -0.395000
45593.920000 -0.400000
45593.924000 -0.390000
45593.928000 -0.395000
45593.932000 -0.380000
45593.936000 -0.405000
45593.940000 -0.410000
45593.944000 -0.430000
45593.948000 -0.415000
45593.952000 -0.405000
45593.956000 -0.405000
45593.960000 -0.405000
45593.964000 -0.400000
45593.968000 -0.410000
45593.972000 -0.390000
45593.976000 -0.390000
45593.980000 -0.395000
45593.984000 -0.370000
45593.988000 -0.370000
45593.992000 -0.345000
45593.996000 -0.315000
45594.000000 -0.280000
45594.004000 -0.290000
45594.008000 -0.280000
45594.012000 -0.220000
45594.016000 -0.060000
45594.020000 0.000000
45594.024000 -0.100000
45594.028000 -0.400000
45594.032000 -0.775000
45594.036000 -1.125000
45594.040000 -1.460000
45594.044000 -1.830000
45594.048000 -2.150000
45594.052000 -2.405000
45594.056000 -2.580000
45594.060000 -2.580000
45594.064000 -2.375000
45594.068000 -2.020000
45594.072000 -1.625000
45594.076000 -1.335000
45594.080000 -1.100000
45594.084000 -0.960000
45594.088000 -0.835000
45594.092000 -0.715000
45594.096000 -0.620000
45594.100000 -0.555000
45594.104000 -0.505000
45594.108000 -0.475000
45594.112000 -0.460000
45594.116000 -0.460000
45594.120000 -0.445000
45594.124000 -0.415000
45594.128000 -0.400000
45594.132000 -0.375000
45594.136000 -0.385000
45594.140000 -0.385000
45594.144000 -0.345000
45594.148000 -0.340000
45594.152000 -0.310000
45594.156000 -0.305000
45594.160000 -0.320000
45594.164000 -0.300000
45594.168000 -0.295000
45594.172000 -0.265000
45594.176000 -0.240000
45594.180000 -0.235000
45594.184000 -0.230000
45594.188000 -0.205000
45594.192000 -0.195000
45594.196000 -0.170000
45594.200000 -0.145000
45594.204000 -0.105000
45594.208000 -0.090000
45594.212000 -0.060000
45594.216000 -0.050000
45594.220000 -0.055000
45594.224000 -0.040000
45594.228000 -0.025000
45594.232000 0.000000
45594.236000 -0.005000
45594.240000 -0.020000
45594.244000 -0.010000
45594.248000 0.000000
45594.252000 0.000000
45594.256000 -0.010000
45594.260000 -0.005000
45594.264000 -0.025000
45594.268000 -0.030000
45594.272000 -0.055000
45594.276000 -0.080000
45594.280000 -0.085000
45594.284000 -0.105000
45594.288000 -0.130000
45594.292000 -0.165000
45594.296000 -0.170000
45594.300000 -0.205000
45594.304000 -0.250000
45594.308000 -0.255000
45594.312000 -0.285000
45594.316000 -0.305000
45594.320000 -0.325000
45594.324000 -0.350000
45594.328000 -0.370000
45594.332000 -0.355000
45594.336000 -0.360000
45594.340000 -0.365000
45594.344000 -0.360000
45594.348000 -0.370000
45594.352000 -0.370000
45594.356000 -0.385000
45594.360000 -0.375000
45594.364000 -0.380000
45594.368000 -0.390000
45594.372000 -0.390000
45594.376000 -0.365000
45594.380000 -0.335000
45594.384000 -0.310000
45594.388000 -0.280000
45594.392000 -0.290000
45594.396000 -0.270000
45594.400000 -0.255000
45594.404000 -0.225000
45594.408000 -0.235000
45594.412000 -0.230000
45594.416000 -0.240000
45594.420000 -0.290000
45594.424000 -0.320000
45594.428000 -0.355000
45594.432000 -0.390000
45594.436000 -0.425000
45594.440000 -0.400000
45594.444000 -0.405000
45594.448000 -0.410000
45594.452000 -0.400000
45594.456000 -0.415000
45594.460000 -0.415000
45594.464000 -0.405000
45594.468000 -0.410000
45594.472000 -0.415000
45594.476000 -0.445000
45594.480000 -0.450000
45594.484000 -0.430000
45594.488000 -0.445000
45594.492000 -0.425000
45594.496000 -0.430000
45594.500000 -0.455000
45594.504000 -0.465000
45594.508000 -0.465000
45594.512000 -0.455000
45594.516000 -0.450000
45594.520000 -0.430000
45594.524000 -0.460000
45594.528000 -0.440000
45594.532000 -0.435000
45594.536000 -0.440000
45594.540000 -0.430000
45594.544000 -0.425000
45594.548000 -0.460000
45594.552000 -0.450000
45594.556000 -0.460000
45594.560000 -0.410000
45594.564000 -0.365000
45594.568000 -0.335000
45594.572000 -0.335000
45594.576000 -0.330000
45594.580000 -0.310000
45594.584000 -0.175000
45594.588000 -0.055000
45594.592000 -0.060000
45594.596000 -0.260000
45594.600000 -0.605000
45594.604000 -0.975000
45594.608000 -1.320000
45594.612000 -1.700000
45594.616000 -2.035000
45594.620000 -2.365000
45594.624000 -2.560000
45594.628000 -2.655000
45594.632000 -2.600000
45594.636000 -2.290000
45594.640000 -1.900000
45594.644000 -1.520000
45594.648000 -1.285000
45594.652000 -1.095000
45594.656000 -0.945000
45594.660000 -0.830000
45594.664000 -0.740000
45594.668000 -0.675000
45594.672000 -0.615000
45594.676000 -0.570000
45594.680000 -0.545000
45594.684000 -0.530000
45594.688000 -0.490000
45594.692000 -0.495000
45594.696000 -0.475000
45594.700000 -0.495000
45594.704000 -0.480000
45594.708000 -0.505000
45594.712000 -0.505000
45594.716000 -0.485000
45594.720000 -0.470000
45594.724000 -0.435000
45594.728000 -0.430000
45594.732000 -0.400000
45594.736000 -0.395000
45594.740000 -0.385000
45594.744000 -0.360000
45594.748000 -0.340000
45594.752000 -0.290000
45594.756000 -0.310000
45594.760000 -0.290000
45594.764000 -0.245000
45594.768000 -0.235000
45594.772000 -0.220000
45594.776000 -0.195000
45594.780000 -0.175000
45594.784000 -0.165000
45594.788000 -0.135000
45594.792000 -0.130000
45594.796000 -0.105000
45594.800000 -0.095000
45594.804000 -0.110000
45594.808000 -0.080000
45594.812000 -0.085000
45594.816000 -0.105000
45594.820000 -0.080000
45594.824000 -0.090000
45594.828000 -0.080000
45594.832000 -0.105000
45594.836000 -0.130000
45594.840000 -0.160000
45594.844000 -0.145000
45594.848000 -0.180000
45594.852000 -0.205000
45594.856000 -0.200000
45594.860000 -0.225000
45594.864000 -0.235000
45594.868000 -0.275000
45594.872000 -0.290000
45594.876000 -0.335000
45594.880000 -0.355000
45594.884000 -0.375000
45594.888000 -0.410000
45594.892000 -0.420000
45594.896000 -0.415000
45594.900000 -0.420000
45594.904000 -0.425000
45594.908000 -0.425000
45594.912000 -0.410000
45594.916000 -0.425000
45594.920000 -0.435000
45594.924000 -0.445000
45594.928000 -0.455000
45594.932000 -0.445000
45594.936000 -0.410000
45594.940000 -0.400000
45594.944000 -0.425000
45594.948000 -0.440000
45594.952000 -0.405000
45594.956000 -0.390000
45594.960000 -0.350000
45594.964000 -0.255000
45594.968000 -0.175000
45594.972000 -0.180000
45594.976000 -0.230000
45594.980000 -0.290000
45594.984000 -0.310000
45594.988000 -0.315000
45594.992000 -0.315000
45594.996000 -0.345000
45595.000000 -0.340000
45595.004000 -0.410000
45595.008000 -0.445000
45595.012000 -0.470000
45595.016000 -0.500000
45595.020000 -0.495000
45595.024000 -0.490000
45595.028000 -0.440000
45595.032000 -0.450000
45595.036000 -0.430000
45595.040000 -0.425000
45595.044000 -0.420000
45595.048000 -0.450000
45595.052000 -0.470000
45595.056000 -0.470000
45595.060000 -0.455000
45595.064000 -0.445000
45595.068000 -0.420000
45595.072000 -0.415000
45595.076000 -0.450000
45595.080000 -0.435000
45595.084000 -0.440000
45595.088000 -0.460000
45595.092000 -0.475000
45595.096000 -0.460000
45595.100000 -0.455000
45595.104000 -0.450000
45595.108000 -0.465000
45595.112000 -0.485000
45595.116000 -0.465000
45595.120000 -0.490000
45595.124000 -0.465000
45595.128000 -0.445000
45595.132000 -0.410000
45595.136000 -0.395000
45595.140000 -0.365000
45595.144000 -0.380000
45595.148000 -0.365000
45595.152000 -0.320000
45595.156000 -0.230000
45595.160000 -0.120000
45595.164000 -0.035000
45595.168000 -0.135000
45595.172000 -0.390000
45595.176000 -0.745000
45595.180000 -1.070000
45595.184000 -1.430000
45595.188000 -1.760000
45595.192000 -2.045000
45595.196000 -2.305000
45595.200000 -2.435000
45595.204000 -2.435000
45595.208000 -2.215000
45595.212000 -1.845000
45595.216000 -1.490000
45595.220000 -1.235000
45595.224000 -1.030000
45595.228000 -0.905000
45595.232000 -0.800000
45595.236000 -0.720000
45595.240000 -0.670000
45595.244000 -0.625000
45595.248000 -0.580000
45595.252000 -0.575000
45595.256000 -0.590000
45595.260000 -0.570000
45595.264000 -0.575000
45595.268000 -0.540000
45595.272000 -0.510000
45595.276000 -0.490000
45595.280000 -0.470000
45595.284000 -0.490000
45595.288000 -0.475000
45595.292000 -0.455000
45595.296000 -0.465000
45595.300000 -0.460000
45595.304000 -0.450000
45595.308000 -0.425000
45595.312000 -0.390000
45595.316000 -0.340000
45595.320000 -0.335000
45595.324000 -0.350000
45595.328000 -0.380000
45595.332000 -0.405000
45595.336000 -0.370000
45595.340000 -0.330000
45595.344000 -0.310000
45595.348000 -0.265000
45595.352000 -0.225000
45595.356000 -0.190000
45595.360000 -0.190000
45595.364000 -0.185000
45595.368000 -0.220000
45595.372000 -0.205000
45595.376000 -0.205000
45595.380000 -0.185000
45595.384000 -0.195000
45595.388000 -0.160000
45595.392000 -0.165000
45595.396000 -0.160000
45595.400000 -0.150000
45595.404000 -0.140000
45595.408000 -0.125000
45595.412000 -0.140000
45595.416000 -0.160000
45595.420000 -0.185000
45595.424000 -0.190000
45595.428000 -0.205000
45595.432000 -0.220000
45595.436000 -0.240000
45595.440000 -0.260000
45595.444000 -0.305000
45595.448000 -0.305000
45595.452000 -0.315000
45595.456000 -0.340000
45595.460000 -0.380000
45595.464000 -0.460000
45595.468000 -0.495000
45595.472000 -0.495000
45595.476000 -0.495000
45595.480000 -0.520000
45595.484000 -0.495000
45595.488000 -0.480000
45595.492000 -0.495000
45595.496000 -0.510000
45595.500000 -0.485000
45595.504000 -0.485000
45595.508000 -0.475000
45595.512000 -0.465000
45595.516000 -0.475000
45595.520000 -0.430000
45595.524000 -0.430000
45595.528000 -0.440000
45595.532000 -0.435000
45595.536000 -0.435000
45595.540000 -0.410000
45595.544000 -0.430000
45595.548000 -0.430000
45595.552000 -0.420000
45595.556000 -0.415000
45595.560000 -0.395000
45595.564000 -0.420000
45595.568000 -0.460000
45595.572000 -0.480000
45595.576000 -0.480000
45595.580000 -0.505000
45595.584000 -0.520000
45595.588000 -0.525000
45595.592000 -0.525000
45595.596000 -0.485000
45595.600000 -0.495000
45595.604000 -0.525000
45595.608000 -0.560000
45595.612000 -0.570000
45595.616000 -0.550000
45595.620000 -0.540000
45595.624000 -0.550000
45595.628000 -0.550000
45595.632000 -0.525000
45595.636000 -0.545000
45595.640000 -0.520000
45595.644000 -0.510000
45595.648000 -0.500000
45595.652000 -0.520000
45595.656000 -0.535000
45595.660000 -0.540000
45595.664000 -0.520000
45595.668000 -0.505000
45595.672000 -0.480000
45595.676000 -0.525000
45595.680000 -0.535000
45595.684000 -0.520000
45595.688000 -0.510000
45595.692000 -0.510000
45595.696000 -0.500000
45595.700000 -0.500000
45595.704000 -0.485000
45595.708000 -0.480000
45595.712000 -0.445000
45595.716000 -0.410000
45595.720000 -0.365000
45595.724000 -0.350000
45595.728000 -0.355000
45595.732000 -0.280000
45595.736000 -0.185000
45595.740000 -0.105000
45595.744000 -0.195000
45595.748000 -0.435000
45595.752000 -0.770000
45595.756000 -1.090000
45595.760000 -1.380000
45595.764000 -1.705000
45595.768000 -1.990000
45595.772000 -2.205000
45595.776000 -2.355000
45595.780000 -2.425000
45595.784000 -2.280000
45595.788000 -1.935000
45595.792000 -1.625000
45595.796000 -1.360000
45595.800000 -1.185000
45595.804000 -1.015000
45595.808000 -0.865000
45595.812000 -0.770000
45595.816000 -0.700000
45595.820000 -0.655000
45595.824000 -0.580000
45595.828000 -0.580000
45595.832000 -0.535000
45595.836000 -0.500000
45595.840000 -0.470000
45595.844000 -0.480000
45595.848000 -0.475000
45595.852000 -0.465000
45595.856000 -0.455000
45595.860000 -0.430000
45595.864000 -0.435000
45595.868000 -0.415000
45595.872000 -0.435000
45595.876000 -0.425000
45595.880000 -0.410000
45595.884000 -0.385000
45595.888000 -0.370000
45595.892000 -0.360000
45595.896000 -0.310000
45595.900000 -0.260000
45595.904000 -0.230000
45595.908000 -0.235000
45595.912000 -0.275000
45595.916000 -0.330000
45595.920000 -0.325000
45595.924000 -0.295000
45595.928000 -0.265000
45595.932000 -0.220000
45595.936000 -0.190000
45595.940000 -0.170000
45595.944000 -0.160000
45595.948000 -0.150000
45595.952000 -0.120000
45595.956000 -0.110000
45595.960000 -0.110000
45595.964000 -0.100000
45595.968000 -0.085000
45595.972000 -0.075000
45595.976000 -0.075000
45595.980000 -0.090000
45595.984000 -0.070000
45595.988000 -0.075000
45595.992000 -0.075000
45595.996000 -0.105000
45596.000000 -0.115000
45596.004000 -0.125000
45596.008000 -0.165000
45596.012000 -0.175000
45596.016000 -0.200000
45596.020000 -0.225000
45596.024000 -0.230000
45596.028000 -0.265000
45596.032000 -0.310000
45596.036000 -0.315000
45596.040000 -0.345000
45596.044000 -0.345000
45596.048000 -0.355000
45596.052000 -0.370000
45596.056000 -0.370000
45596.060000 -0.365000
45596.064000 -0.380000
45596.068000 -0.370000
45596.072000 -0.380000
45596.076000 -0.385000
45596.080000 -0.385000
45596.084000 -0.355000
45596.088000 -0.330000
45596.092000 -0.320000
45596.096000 -0.300000
45596.100000 -0.340000
45596.104000 -0.360000
45596.108000 -0.340000
45596.112000 -0.330000
45596.116000 -0.320000
45596.120000 -0.290000
45596.124000 -0.230000
45596.128000 -0.235000
45596.132000 -0.210000
45596.136000 -0.180000
45596.140000 -0.215000
45596.144000 -0.245000
45596.148000 -0.290000
45596.152000 -0.320000
45596.156000 -0.320000
45596.160000 -0.330000
45596.164000 -0.320000
45596.168000 -0.330000
45596.172000 -0.335000
45596.176000 -0.325000
45596.180000 -0.325000
45596.184000 -0.325000
45596.188000 -0.325000
45596.192000 -0.320000
45596.196000 -0.305000
45596.200000 -0.330000
45596.204000 -0.375000
45596.208000 -0.420000
45596.212000 -0.430000
45596.216000 -0.440000
45596.220000 -0.405000
45596.224000 -0.390000
45596.228000 -0.410000
45596.232000 -0.380000
45596.236000 -0.395000
45596.240000 -0.390000
45596.244000 -0.385000
45596.248000 -0.360000
45596.252000 -0.345000
45596.256000 -0.350000
45596.260000 -0.395000
45596.264000 -0.395000
45596.268000 -0.360000
45596.272000 -0.385000
45596.276000 -0.375000
45596.280000 -0.360000
45596.284000 -0.355000
45596.288000 -0.320000
45596.292000 -0.315000
45596.296000 -0.270000
45596.300000 -0.240000
45596.304000 -0.205000
45596.308000 -0.105000
45596.312000 -0.020000
45596.316000 -0.005000
45596.320000 -0.130000
45596.324000 -0.410000
45596.328000 -0.785000
45596.332000 -1.165000
45596.336000 -1.510000
45596.340000 -1.815000
45596.344000 -2.085000
45596.348000 -2.330000
45596.352000 -2.490000
45596.356000 -2.510000
45596.360000 -2.305000
45596.364000 -1.905000
45596.368000 -1.540000
45596.372000 -1.235000
45596.376000 -1.050000
45596.380000 -0.895000
45596.384000 -0.785000
45596.388000 -0.655000
45596.392000 -0.565000
45596.396000 -0.515000
45596.400000 -0.485000
45596.404000 -0.480000
45596.408000 -0.455000
45596.412000 -0.450000
45596.416000 -0.405000
45596.420000 -0.365000
45596.424000 -0.340000
45596.428000 -0.355000
45596.432000 -0.340000
45596.436000 -0.330000
45596.440000 -0.320000
45596.444000 -0.310000
45596.448000 -0.285000
45596.452000 -0.285000
45596.456000 -0.275000
45596.460000 -0.275000
45596.464000 -0.275000
45596.468000 -0.240000
45596.472000 -0.245000
45596.476000 -0.230000
45596.480000 -0.190000
45596.484000 -0.200000
45596.488000 -0.165000
45596.492000 -0.150000
45596.496000 -0.120000
45596.500000 -0.105000
45596.504000 -0.075000
45596.508000 -0.080000
45596.512000 -0.040000
45596.516000 -0.035000
45596.520000 -0.005000
45596.524000 0.000000
45596.528000 0.000000
45596.532000 -0.005000
45596.536000 0.025000
45596.540000 0.035000
45596.544000 0.035000
45596.548000 0.045000
45596.552000 0.010000
45596.556000 -0.005000
45596.560000 -0.005000
45596.564000 -0.015000
45596.568000 -0.030000
45596.572000 -0.075000
45596.576000 -0.100000
45596.580000 -0.110000
45596.584000 -0.135000
45596.588000 -0.165000
45596.592000 -0.180000
45596.596000 -0.175000
45596.600000 -0.205000
45596.604000 -0.225000
45596.608000 -0.240000
45596.612000 -0.270000
45596.616000 -0.275000
45596.620000 -0.290000
45596.624000 -0.335000
45596.628000 -0.345000
45596.632000 -0.335000
45596.636000 -0.340000
45596.640000 -0.325000
45596.644000 -0.335000
45596.648000 -0.355000
45596.652000 -0.405000
45596.656000 -0.430000
45596.660000 -0.435000
45596.664000 -0.390000
45596.668000 -0.365000
45596.672000 -0.365000
45596.676000 -0.340000
45596.680000 -0.335000
45596.684000 -0.285000
45596.688000 -0.265000
45596.692000 -0.230000
45596.696000 -0.160000
45596.700000 -0.135000
45596.704000 -0.145000
45596.708000 -0.165000
45596.712000 -0.165000
45596.716000 -0.230000
45596.720000 -0.295000
45596.724000 -0.350000
45596.728000 -0.355000
45596.732000 -0.340000
45596.736000 -0.340000
45596.740000 -0.390000
45596.744000 -0.390000
45596.748000 -0.365000
45596.752000 -0.340000
45596.756000 -0.365000
45596.760000 -0.355000
45596.764000 -0.370000
45596.768000 -0.400000
45596.772000 -0.420000
45596.776000 -0.430000
45596.780000 -0.405000
45596.784000 -0.380000
45596.788000 -0.410000
45596.792000 -0.410000
45596.796000 -0.415000
45596.800000 -0.405000
45596.804000 -0.390000
45596.808000 -0.395000
45596.812000 -0.405000
45596.816000 -0.390000
45596.820000 -0.405000
45596.824000 -0.405000
45596.828000 -0.385000
45596.832000 -0.375000
45596.836000 -0.380000
45596.840000 -0.380000
45596.844000 -0.360000
45596.848000 -0.355000
45596.852000 -0.355000
45596.856000 -0.340000
45596.860000 -0.335000
45596.864000 -0.320000
45596.868000 -0.300000
45596.872000 -0.295000
45596.876000 -0.230000
45596.880000 -0.140000
45596.884000 -0.020000
45596.888000 -0.020000
45596.892000 -0.215000
45596.896000 -0.575000
45596.900000 -0.940000
45596.904000 -1.275000
45596.908000 -1.610000
45596.912000 -1.980000
45596.916000 -2.275000
45596.920000 -2.500000
45596.924000 -2.615000
45596.928000 -2.550000
45596.932000 -2.230000
45596.936000 -1.815000
45596.940000 -1.440000
45596.944000 -1.185000
45596.948000 -1.010000
45596.952000 -0.845000
45596.956000 -0.780000
45596.960000 -0.685000
45596.964000 -0.625000
45596.968000 -0.560000
45596.972000 -0.530000
45596.976000 -0.500000
45596.980000 -0.465000
45596.984000 -0.450000
45596.988000 -0.470000
45596.992000 -0.480000
45596.996000 -0.450000
45597.000000 -0.415000
45597.004000 -0.380000
45597.008000 -0.390000
45597.012000 -0.380000
45597.016000 -0.380000
45597.020000 -0.395000
45597.024000 -0.355000
45597.028000 -0.335000
45597.032000 -0.310000
45597.036000 -0.320000
45597.040000 -0.335000
45597.044000 -0.310000
45597.048000 -0.340000
45597.052000 -0.355000
45597.056000 -0.355000
45597.060000 -0.315000
45597.064000 -0.245000
45597.068000 -0.200000
45597.072000 -0.165000
45597.076000 -0.200000
45597.080000 -0.175000
45597.084000 -0.150000
45597.088000 -0.120000
45597.092000 -0.125000
45597.096000 -0.115000
45597.100000 -0.085000
45597.104000 -0.095000
45597.108000 -0.095000
45597.112000 -0.050000
45597.116000 -0.015000
45597.120000 -0.050000
45597.124000 -0.100000
45597.128000 -0.150000
45597.132000 -0.185000
45597.136000 -0.170000
45597.140000 -0.165000
45597.144000 -0.160000
45597.148000 -0.165000
45597.152000 -0.225000
45597.156000 -0.275000
45597.160000 -0.285000
45597.164000 -0.300000
45597.168000 -0.315000
45597.172000 -0.325000
45597.176000 -0.355000
45597.180000 -0.350000
45597.184000 -0.375000
45597.188000 -0.405000
45597.192000 -0.415000
45597.196000 -0.390000
45597.200000 -0.390000
45597.204000 -0.380000
45597.208000 -0.415000
45597.212000 -0.455000
45597.216000 -0.485000
45597.220000 -0.470000
45597.224000 -0.465000
45597.228000 -0.470000
45597.232000 -0.465000
45597.236000 -0.465000
45597.240000 -0.450000
45597.244000 -0.415000
45597.248000 -0.380000
45597.252000 -0.340000
45597.256000 -0.300000
45597.260000 -0.280000
45597.264000 -0.245000
45597.268000 -0.250000
45597.272000 -0.230000
45597.276000 -0.230000
45597.280000 -0.230000
45597.284000 -0.290000
45597.288000 -0.350000
45597.292000 -0.395000
45597.296000 -0.435000
45597.300000 -0.390000
45597.304000 -0.385000
45597.308000 -0.430000
45597.312000 -0.455000
45597.316000 -0.490000
45597.320000 -0.495000
45597.324000 -0.475000
45597.328000 -0.465000
45597.332000 -0.470000
45597.336000 -0.450000
45597.340000 -0.480000
45597.344000 -0.495000
45597.348000 -0.490000
45597.352000 -0.470000
45597.356000 -0.480000
45597.360000 -0.490000
45597.364000 -0.480000
45597.368000 -0.460000
45597.372000 -0.505000
45597.376000 -0.485000
45597.380000 -0.490000
45597.384000 -0.485000
45597.388000 -0.500000
45597.392000 -0.485000
45597.396000 -0.490000
45597.400000 -0.470000
45597.404000 -0.460000
45597.408000 -0.450000
45597.412000 -0.495000
45597.416000 -0.455000
45597.420000 -0.440000
45597.424000 -0.425000
45597.428000 -0.400000
45597.432000 -0.395000
45597.436000 -0.390000
45597.440000 -0.415000
45597.444000 -0.390000
45597.448000 -0.310000
45597.452000 -0.195000
45597.456000 -0.065000
45597.460000 -0.080000
45597.464000 -0.270000
45597.468000 -0.580000
45597.472000 -0.930000
45597.476000 -1.280000
45597.480000 -1.605000
45597.484000 -1.930000
45597.488000 -2.155000
45597.492000 -2.360000
45597.496000 -2.435000
45597.500000 -2.325000
45597.504000 -2.015000
45597.508000 -1.650000
45597.512000 -1.325000
45597.516000 -1.145000
45597.520000 -1.030000
45597.524000 -0.925000
45597.528000 -0.830000
45597.532000 -0.760000
45597.536000 -0.710000
45597.540000 -0.685000
45597.544000 -0.620000
45597.548000 -0.580000
45597.552000 -0.560000
45597.556000 -0.535000
45597.560000 -0.510000
45597.564000 -0.500000
45597.568000 -0.485000
45597.572000 -0.515000
45597.576000 -0.505000
45597.580000 -0.495000
45597.584000 -0.455000
45597.588000 -0.470000
45597.592000 -0.455000
45597.596000 -0.400000
45597.600000 -0.375000
45597.604000 -0.340000
45597.608000 -0.360000
45597.612000 -0.385000
45597.616000 -0.370000
45597.620000 -0.400000
45597.624000 -0.420000
45597.628000 -0.415000
45597.632000 -0.330000
45597.636000 -0.275000
45597.640000 -0.240000
45597.644000 -0.250000
45597.648000 -0.225000
45597.652000 -0.230000
45597.656000 -0.180000
45597.660000 -0.175000
45597.664000 -0.190000
45597.668000 -0.230000
45597.672000 -0.230000
45597.676000 -0.255000
45597.680000 -0.220000
45597.684000 -0.195000
45597.688000 -0.110000
45597.692000 -0.125000
45597.696000 -0.140000
45597.700000 -0.135000
45597.704000 -0.135000
45597.708000 -0.145000
45597.712000 -0.105000
45597.716000 -0.085000
45597.720000 -0.135000
45597.724000 -0.225000
45597.728000 -0.265000
45597.732000 -0.295000
45597.736000 -0.305000
45597.740000 -0.335000
45597.744000 -0.330000
45597.748000 -0.340000
45597.752000 -0.390000
45597.756000 -0.405000
45597.760000 -0.440000
45597.764000 -0.410000
45597.768000 -0.410000
45597.772000 -0.420000
45597.776000 -0.405000
45597.780000 -0.410000
45597.784000 -0.400000
45597.788000 -0.415000
45597.792000 -0.395000
45597.796000 -0.385000
45597.800000 -0.385000
45597.804000 -0.405000
45597.808000 -0.385000
45597.812000 -0.400000
45597.816000 -0.395000
45597.820000 -0.375000
45597.824000 -0.380000
45597.828000 -0.360000
45597.832000 -0.330000
45597.836000 -0.285000
45597.840000 -0.270000
45597.844000 -0.230000
45597.848000 -0.200000
45597.852000 -0.210000
45597.856000 -0.285000
45597.860000 -0.360000
45597.864000 -0.395000
45597.868000 -0.440000
45597.872000 -0.465000
45597.876000 -0.440000
45597.880000 -0.415000
45597.884000 -0.400000
45597.888000 -0.410000
45597.892000 -0.425000
45597.896000 -0.455000
45597.900000 -0.420000
45597.904000 -0.390000
45597.908000 -0.345000
45597.912000 -0.335000
45597.916000 -0.385000
45597.920000 -0.425000
45597.924000 -0.455000
45597.928000 -0.495000
45597.932000 -0.515000
45597.936000 -0.490000
45597.940000 -0.505000
45597.944000 -0.490000
45597.948000 -0.475000
45597.952000 -0.450000
45597.956000 -0.455000
45597.960000 -0.465000
45597.964000 -0.455000
45597.968000 -0.470000
45597.972000 -0.470000
45597.976000 -0.460000
45597.980000 -0.440000
45597.984000 -0.435000
45597.988000 -0.445000
45597.992000 -0.420000
45597.996000 -0.415000
45598.000000 -0.410000
45598.004000 -0.365000
45598.008000 -0.330000
45598.012000 -0.310000
45598.016000 -0.305000
45598.020000 -0.290000
45598.024000 -0.230000
45598.028000 -0.120000
45598.032000 -0.015000
45598.036000 -0.035000
45598.040000 -0.190000
45598.044000 -0.485000
45598.048000 -0.805000
45598.052000 -1.095000
45598.056000 -1.420000
45598.060000 -1.705000
45598.064000 -1.930000
45598.068000 -2.120000
45598.072000 -2.285000
45598.076000 -2.280000
45598.080000 -2.050000
45598.084000 -1.700000
45598.088000 -1.380000
45598.092000 -1.130000
45598.096000 -0.935000
45598.100000 -0.795000
45598.104000 -0.720000
45598.108000 -0.630000
45598.112000 -0.550000
45598.116000 -0.505000
45598.120000 -0.505000
45598.124000 -0.495000
45598.128000 -0.500000
45598.132000 -0.460000
45598.136000 -0.470000
45598.140000 -0.440000
45598.144000 -0.410000
45598.148000 -0.370000
45598.152000 -0.355000
45598.156000 -0.370000
45598.160000 -0.390000
45598.164000 -0.375000
45598.168000 -0.365000
45598.172000 -0.370000
45598.176000 -0.355000
45598.180000 -0.350000
45598.184000 -0.310000
45598.188000 -0.280000
45598.192000 -0.275000
45598.196000 -0.310000
45598.200000 -0.305000
45598.204000 -0.270000
45598.208000 -0.240000
45598.212000 -0.185000
45598.216000 -0.135000
45598.220000 -0.135000
45598.224000 -0.105000
45598.228000 -0.095000
45598.232000 -0.080000
45598.236000 -0.090000
45598.240000 -0.080000
45598.244000 -0.055000
45598.248000 -0.035000
45598.252000 -0.025000
45598.256000 -0.040000
45598.260000 -0.025000
45598.264000 -0.015000
45598.268000 -0.010000
45598.272000 0.000000
45598.276000 -0.015000
45598.280000 -0.045000
45598.284000 -0.060000
45598.288000 -0.070000
45598.292000 -0.080000
45598.296000 -0.065000
45598.300000 -0.070000
45598.304000 -0.095000
45598.308000 -0.135000
45598.312000 -0.145000
45598.316000 -0.210000
45598.320000 -0.230000
45598.324000 -0.265000
45598.328000 -0.295000
45598.332000 -0.310000
45598.336000 -0.315000
45598.340000 -0.340000
45598.344000 -0.360000
45598.348000 -0.340000
45598.352000 -0.365000
45598.356000 -0.350000
45598.360000 -0.360000
45598.364000 -0.370000
45598.368000 -0.385000
45598.372000 -0.400000
45598.376000 -0.380000
45598.380000 -0.350000
45598.384000 -0.360000
45598.388000 -0.350000
45598.392000 -0.340000
45598.396000 -0.325000
45598.400000 -0.295000
45598.404000 -0.265000
45598.408000 -0.220000
45598.412000 -0.160000
45598.416000 -0.180000
45598.420000 -0.165000
45598.424000 -0.190000
45598.428000 -0.195000
45598.432000 -0.230000
45598.436000 -0.255000
45598.440000 -0.240000
45598.444000 -0.310000
45598.448000 -0.330000
45598.452000 -0.390000
45598.456000 -0.395000
45598.460000 -0.380000
45598.464000 -0.365000
45598.468000 -0.350000
45598.472000 -0.355000
45598.476000 -0.390000
45598.480000 -0.380000
45598.484000 -0.355000
45598.488000 -0.310000
45598.492000 -0.345000
45598.496000 -0.415000
45598.500000 -0.455000
45598.504000 -0.465000
45598.508000 -0.410000
45598.512000 -0.420000
45598.516000 -0.430000
45598.520000 -0.445000
45598.524000 -0.435000
45598.528000 -0.430000
45598.532000 -0.405000
45598.536000 -0.395000
45598.540000 -0.405000
45598.544000 -0.430000
45598.548000 -0.460000
45598.552000 -0.445000
45598.556000 -0.415000
45598.560000 -0.375000
45598.564000 -0.360000
45598.568000 -0.385000
45598.572000 -0.410000
45598.576000 -0.395000
45598.580000 -0.375000
45598.584000 -0.355000
45598.588000 -0.330000
45598.592000 -0.295000
45598.596000 -0.285000
45598.600000 -0.210000
45598.604000 -0.080000
45598.608000 0.005000
45598.612000 -0.070000
45598.616000 -0.315000
45598.620000 -0.655000
45598.624000 -0.965000
45598.628000 -1.305000
45598.632000 -1.680000
45598.636000 -2.025000
45598.640000 -2.275000
45598.644000 -2.410000
45598.648000 -2.465000
45598.652000 -2.270000
45598.656000 -1.905000
45598.660000 -1.545000
45598.664000 -1.270000
45598.668000 -1.045000
45598.672000 -0.870000
45598.676000 -0.745000
45598.680000 -0.650000
45598.684000 -0.580000
45598.688000 -0.525000
45598.692000 -0.470000
45598.696000 -0.450000
45598.700000 -0.425000
45598.704000 -0.400000
45598.708000 -0.390000
45598.712000 -0.370000
45598.716000 -0.345000
45598.720000 -0.345000
45598.724000 -0.320000
45598.728000 -0.305000
45598.732000 -0.295000
45598.736000 -0.290000
45598.740000 -0.300000
45598.744000 -0.305000
45598.748000 -0.270000
45598.752000 -0.290000
45598.756000 -0.265000
45598.760000 -0.250000
45598.764000 -0.235000
45598.768000 -0.230000
45598.772000 -0.225000
45598.776000 -0.185000
45598.780000 -0.175000
45598.784000 -0.125000
45598.788000 -0.115000
45598.792000 -0.065000
45598.796000 -0.050000
45598.800000 -0.050000
45598.804000 -0.025000
45598.808000 -0.025000
45598.812000 -0.025000
45598.816000 -0.045000
45598.820000 -0.035000
45598.824000 0.020000
45598.828000 0.035000
45598.832000 0.025000
45598.836000 0.020000
45598.840000 -0.005000
45598.844000 0.020000
45598.848000 0.015000
45598.852000 -0.010000
45598.856000 -0.025000
45598.860000 0.015000
45598.864000 0.010000
45598.868000 0.005000
45598.872000 -0.080000
45598.876000 -0.140000
45598.880000 -0.205000
45598.884000 -0.205000
45598.888000 -0.180000
45598.892000 -0.185000
45598.896000 -0.230000
45598.900000 -0.255000
45598.904000 -0.280000
45598.908000 -0.310000
45598.912000 -0.285000
45598.916000 -0.295000
45598.920000 -0.285000
45598.924000 -0.295000
45598.928000 -0.280000
45598.932000 -0.320000
45598.936000 -0.355000
45598.940000 -0.390000
45598.944000 -0.375000
45598.948000 -0.360000
45598.952000 -0.350000
45598.956000 -0.325000
45598.960000 -0.335000
45598.964000 -0.355000
45598.968000 -0.350000
45598.972000 -0.315000
45598.976000 -0.295000
45598.980000 -0.260000
45598.984000 -0.245000
45598.988000 -0.200000
45598.992000 -0.175000
45598.996000 -0.155000
45599.000000 -0.145000
45599.004000 -0.175000
45599.008000 -0.230000
45599.012000 -0.250000
45599.016000 -0.290000
45599.020000 -0.310000
45599.024000 -0.260000
45599.028000 -0.250000
45599.032000 -0.320000
45599.036000 -0.400000
45599.040000 -0.440000
45599.044000 -0.445000
45599.048000 -0.395000
45599.052000 -0.400000
45599.056000 -0.425000
45599.060000 -0.405000
45599.064000 -0.385000
45599.068000 -0.380000
45599.072000 -0.385000
45599.076000 -0.365000
45599.080000 -0.370000
45599.084000 -0.380000
45599.088000 -0.390000
45599.092000 -0.385000
45599.096000 -0.385000
45599.100000 -0.390000
45599.104000 -0.360000
45599.108000 -0.320000
45599.112000 -0.355000
45599.116000 -0.425000
45599.120000 -0.430000
45599.124000 -0.410000
45599.128000 -0.390000
45599.132000 -0.390000
45599.136000 -0.375000
45599.140000 -0.380000
45599.144000 -0.390000
45599.148000 -0.395000
45599.152000 -0.350000
45599.156000 -0.320000
45599.160000 -0.270000
45599.164000 -0.235000
45599.168000 -0.220000
45599.172000 -0.210000
45599.176000 -0.110000
45599.180000 -0.055000
45599.184000 -0.180000
45599.188000 -0.500000
45599.192000 -0.850000
45599.196000 -1.175000
45599.200000 -1.525000
45599.204000 -1.845000
45599.208000 -2.145000
45599.212000 -2.350000
45599.216000 -2.465000
45599.220000 -2.430000
45599.224000 -2.130000
45599.228000 -1.780000
45599.232000 -1.435000
45599.236000 -1.170000
45599.240000 -0.990000
45599.244000 -0.860000
45599.248000 -0.750000
45599.252000 -0.660000
45599.256000 -0.590000
45599.260000 -0.515000
45599.264000 -0.475000
45599.268000 -0.500000
45599.272000 -0.480000
45599.276000 -0.455000
45599.280000 -0.455000
45599.284000 -0.435000
45599.288000 -0.425000
45599.292000 -0.410000
45599.296000 -0.420000
45599.300000 -0.365000
45599.304000 -0.380000
45599.308000 -0.355000
45599.312000 -0.355000
45599.316000 -0.350000
45599.320000 -0.370000
45599.324000 -0.375000
45599.328000 -0.370000
45599.332000 -0.345000
45599.336000 -0.320000
45599.340000 -0.275000
45599.344000 -0.235000
45599.348000 -0.255000
45599.352000 -0.230000
45599.356000 -0.230000
45599.360000 -0.230000
45599.364000 -0.185000
45599.368000 -0.150000
45599.372000 -0.125000
45599.376000 -0.125000
45599.380000 -0.105000
45599.384000 -0.120000
45599.388000 -0.110000
45599.392000 -0.080000
45599.396000 -0.060000
45599.400000 -0.060000
45599.404000 -0.060000
45599.408000 -0.065000
45599.412000 -0.060000
45599.416000 -0.080000
45599.420000 -0.095000
45599.424000 -0.090000
45599.428000 -0.105000
45599.432000 -0.100000
45599.436000 -0.100000
45599.440000 -0.095000
45599.444000 -0.150000
45599.448000 -0.185000
45599.452000 -0.215000
45599.456000 -0.225000
45599.460000 -0.240000
45599.464000 -0.255000
45599.468000 -0.275000
45599.472000 -0.290000
45599.476000 -0.345000
45599.480000 -0.385000
45599.484000 -0.415000
45599.488000 -0.420000
45599.492000 -0.390000
45599.496000 -0.410000
45599.500000 -0.410000
45599.504000 -0.430000
45599.508000 -0.435000
45599.512000 -0.430000
45599.516000 -0.445000
45599.520000 -0.445000
45599.524000 -0.460000
45599.528000 -0.415000
45599.532000 -0.410000
45599.536000 -0.405000
45599.540000 -0.360000
45599.544000 -0.330000
45599.548000 -0.305000
45599.552000 -0.325000
45599.556000 -0.315000
45599.560000 -0.305000
45599.564000 -0.245000
45599.568000 -0.230000
45599.572000 -0.225000
45599.576000 -0.210000
45599.580000 -0.275000
45599.584000 -0.365000
45599.588000 -0.445000
45599.592000 -0.455000
45599.596000 -0.410000
45599.600000 -0.395000
45599.604000 -0.395000
45599.608000 -0.435000
45599.612000 -0.435000
45599.616000 -0.445000
45599.620000 -0.415000
45599.624000 -0.405000
45599.628000 -0.365000
45599.632000 -0.375000
45599.636000 -0.390000
45599.640000 -0.445000
45599.644000 -0.445000
45599.648000 -0.435000
45599.652000 -0.435000
45599.656000 -0.440000
45599.660000 -0.420000
45599.664000 -0.420000
45599.668000 -0.440000
45599.672000 -0.440000
45599.676000 -0.440000
45599.680000 -0.420000
45599.684000 -0.425000
45599.688000 -0.410000
45599.692000 -0.420000
45599.696000 -0.425000
45599.700000 -0.420000
45599.704000 -0.405000
45599.708000 -0.405000
45599.712000 -0.415000
45599.716000 -0.420000
45599.720000 -0.395000
45599.724000 -0.395000
45599.728000 -0.340000
45599.732000 -0.320000
45599.736000 -0.330000
45599.740000 -0.275000
45599.744000 -0.220000
45599.748000 -0.085000
45599.752000 0.000000
45599.756000 -0.065000
45599.760000 -0.265000
45599.764000 -0.595000
45599.768000 -0.890000
45599.772000 -1.200000
45599.776000 -1.510000
45599.780000 -1.790000
45599.784000 -2.025000
45599.788000 -2.230000
45599.792000 -2.260000
45599.796000 -2.190000
45599.800000 -1.925000
45599.804000 -1.585000
45599.808000 -1.295000
45599.812000 -1.055000
45599.816000 -0.910000
45599.820000 -0.800000
45599.824000 -0.715000
45599.828000 -0.660000
45599.832000 -0.590000
45599.836000 -0.550000
45599.840000 -0.495000
45599.844000 -0.470000
45599.848000 -0.480000
45599.852000 -0.480000
45599.856000 -0.465000
45599.860000 -0.455000
45599.864000 -0.445000
45599.868000 -0.405000
45599.872000 -0.420000
45599.876000 -0.390000
45599.880000 -0.395000
45599.884000 -0.360000
45599.888000 -0.325000
45599.892000 -0.260000
45599.896000 -0.275000
45599.900000 -0.345000
45599.904000 -0.420000
45599.908000 -0.435000
45599.912000 -0.370000
45599.916000 -0.310000
45599.920000 -0.290000
45599.924000 -0.290000
45599.928000 -0.235000
45599.932000 -0.230000
45599.936000 -0.195000
45599.940000 -0.150000
45599.944000 -0.155000
45599.948000 -0.190000
45599.952000 -0.165000
45599.956000 -0.135000
45599.960000 -0.080000
45599.964000 -0.100000
45599.968000 -0.100000
45599.972000 -0.100000
45599.976000 -0.105000
45599.980000 -0.080000
45599.984000 -0.045000
45599.988000 -0.055000
45599.992000 -0.055000
45599.996000 -0.035000
45600.000000 -0.060000
45600.004000 -0.060000
45600.008000 -0.045000
45600.012000 -0.085000
45600.016000 -0.135000
45600.020000 -0.145000
45600.024000 -0.155000
45600.028000 -0.205000
45600.032000 -0.195000
45600.036000 -0.190000
45600.040000 -0.220000
45600.044000 -0.230000
45600.048000 -0.220000
45600.052000 -0.260000
45600.056000 -0.255000
45600.060000 -0.270000
45600.064000 -0.285000
45600.068000 -0.300000
45600.072000 -0.320000
45600.076000 -0.340000
45600.080000 -0.365000
45600.084000 -0.345000
45600.088000 -0.350000
45600.092000 -0.305000
45600.096000 -0.310000
45600.100000 -0.300000
45600.104000 -0.305000
45600.108000 -0.310000
45600.112000 -0.295000
45600.116000 -0.265000
45600.120000 -0.265000
45600.124000 -0.250000
45600.128000 -0.205000
45600.132000 -0.160000
45600.136000 -0.130000
45600.140000 -0.170000
45600.144000 -0.205000
45600.148000 -0.245000
45600.152000 -0.275000
45600.156000 -0.305000
45600.160000 -0.320000
45600.164000 -0.320000
45600.168000 -0.350000
45600.172000 -0.370000
45600.176000 -0.365000
45600.180000 -0.380000
45600.184000 -0.360000
45600.188000 -0.340000
45600.192000 -0.350000
45600.196000 -0.335000
45600.200000 -0.325000
45600.204000 -0.315000
45600.208000 -0.340000
45600.212000 -0.375000
45600.216000 -0.390000
45600.220000 -0.405000
45600.224000 -0.390000
45600.228000 -0.345000
45600.232000 -0.325000
45600.236000 -0.310000
45600.240000 -0.365000
45600.244000 -0.375000
45600.248000 -0.405000
45600.252000 -0.420000
45600.256000 -0.435000
45600.260000 -0.435000
45600.264000 -0.390000
45600.268000 -0.395000
45600.272000 -0.345000
45600.276000 -0.335000
45600.280000 -0.330000
45600.284000 -0.345000
45600.288000 -0.340000
45600.292000 -0.330000
45600.296000 -0.310000
45600.300000 -0.295000
45600.304000 -0.260000
45600.308000 -0.265000
45600.312000 -0.230000
45600.316000 -0.140000
45600.320000 -0.070000
45600.324000 0.050000
45600.328000 0.045000
45600.332000 -0.105000
45600.336000 -0.405000
45600.340000 -0.720000
45600.344000 -1.025000
45600.348000 -1.345000
45600.352000 -1.620000
45600.356000 -1.870000
45600.360000 -2.095000
45600.364000 -2.280000
45600.368000 -2.260000
45600.372000 -1.985000
45600.376000 -1.625000
45600.380000 -1.355000
45600.384000 -1.115000
45600.388000 -0.960000
45600.392000 -0.805000
45600.396000 -0.685000
45600.400000 -0.605000
45600.404000 -0.525000
45600.408000 -0.460000
45600.412000 -0.425000
45600.416000 -0.410000
45600.420000 -0.390000
45600.424000 -0.360000
45600.428000 -0.330000
45600.432000 -0.335000
45600.436000 -0.320000
45600.440000 -0.320000
45600.444000 -0.320000
45600.448000 -0.300000
45600.452000 -0.295000
45600.456000 -0.280000
45600.460000 -0.255000
45600.464000 -0.250000
45600.468000 -0.260000
45600.472000 -0.235000
45600.476000 -0.215000
45600.480000 -0.195000
45600.484000 -0.190000
45600.488000 -0.165000
45600.492000 -0.160000
45600.496000 -0.150000
45600.500000 -0.135000
45600.504000 -0.120000
45600.508000 -0.130000
45600.512000 -0.110000
45600.516000 -0.070000
45600.520000 -0.040000
45600.524000 -0.060000
45600.528000 -0.040000
45600.532000 -0.015000
45600.536000 0.005000
45600.540000 0.005000
45600.544000 0.015000
45600.548000 0.030000
45600.552000 -0.015000
45600.556000 0.005000
45600.560000 0.010000
45600.564000 0.000000
45600.568000 0.035000
45600.572000 -0.005000
45600.576000 0.000000
45600.580000 0.005000
45600.584000 -0.005000
45600.588000 -0.055000
45600.592000 -0.115000
45600.596000 -0.140000
45600.600000 -0.155000
45600.604000 -0.150000
45600.608000 -0.160000
45600.612000 -0.150000
45600.616000 -0.180000
45600.620000 -0.160000
45600.624000 -0.175000
45600.628000 -0.230000
45600.632000 -0.270000
45600.636000 -0.330000
45600.640000 -0.365000
45600.644000 -0.385000
45600.648000 -0.375000
45600.652000 -0.385000
45600.656000 -0.355000
45600.660000 -0.320000
45600.664000 -0.300000
45600.668000 -0.290000
45600.672000 -0.290000
45600.676000 -0.275000
45600.680000 -0.275000
45600.684000 -0.250000
45600.688000 -0.210000
45600.692000 -0.230000
45600.696000 -0.270000
45600.700000 -0.245000
45600.704000 -0.180000
45600.708000 -0.130000
45600.712000 -0.105000
45600.716000 -0.080000
45600.720000 -0.140000
45600.724000 -0.140000
45600.728000 -0.160000
45600.732000 -0.160000
45600.736000 -0.195000
45600.740000 -0.190000
45600.744000 -0.235000
45600.748000 -0.230000
45600.752000 -0.230000
45600.756000 -0.205000
45600.760000 -0.200000
45600.764000 -0.210000
45600.768000 -0.195000
45600.772000 -0.175000
45600.776000 -0.205000
45600.780000 -0.230000
45600.784000 -0.260000
45600.788000 -0.280000
45600.792000 -0.235000
45600.796000 -0.205000
45600.800000 -0.190000
45600.804000 -0.220000
45600.808000 -0.265000
45600.812000 -0.305000
45600.816000 -0.305000
45600.820000 -0.285000
45600.824000 -0.270000
45600.828000 -0.235000
45600.832000 -0.205000
45600.836000 -0.220000
45600.840000 -0.240000
45600.844000 -0.275000
45600.848000 -0.285000
45600.852000 -0.255000
45600.856000 -0.210000
45600.860000 -0.200000
45600.864000 -0.230000
45600.868000 -0.235000
45600.872000 -0.220000
45600.876000 -0.205000
45600.880000 -0.185000
45600.884000 -0.140000
45600.888000 -0.115000
45600.892000 -0.025000
45600.896000 0.110000
45600.900000 0.130000
45600.904000 -0.020000
45600.908000 -0.295000
45600.912000 -0.640000
45600.916000 -0.965000
45600.920000 -1.295000
45600.924000 -1.630000
45600.928000 -1.920000
45600.932000 -2.170000
45600.936000 -2.370000
45600.940000 -2.380000
45600.944000 -2.185000
45600.948000 -1.805000
45600.952000 -1.475000
45600.956000 -1.155000
45600.960000 -0.925000
45600.964000 -0.780000
45600.968000 -0.650000
45600.972000 -0.575000
45600.976000 -0.505000
45600.980000 -0.440000
45600.984000 -0.385000
45600.988000 -0.380000
45600.992000 -0.350000
45600.996000 -0.295000
45601.000000 -0.290000
45601.004000 -0.290000
45601.008000 -0.260000
45601.012000 -0.240000
45601.016000 -0.240000
45601.020000 -0.210000
45601.024000 -0.225000
45601.028000 -0.215000
45601.032000 -0.210000
45601.036000 -0.180000
45601.040000 -0.170000
45601.044000 -0.130000
45601.048000 -0.130000
45601.052000 -0.100000
45601.056000 -0.110000
45601.060000 -0.085000
45601.064000 -0.090000
45601.068000 -0.070000
45601.072000 -0.035000
45601.076000 -0.005000
45601.080000 -0.005000
45601.084000 -0.025000
45601.088000 -0.020000
45601.092000 -0.005000
45601.096000 0.035000
45601.100000 0.070000
45601.104000 0.070000
45601.108000 0.105000
45601.112000 0.115000
45601.116000 0.095000
45601.120000 0.085000
45601.124000 0.070000
45601.128000 0.085000
45601.132000 0.080000
45601.136000 0.055000
45601.140000 0.045000
45601.144000 0.080000
45601.148000 0.115000
45601.152000 0.095000
45601.156000 0.055000
45601.160000 0.010000
45601.164000 0.000000
45601.168000 -0.030000
45601.172000 -0.085000
45601.176000 -0.115000
45601.180000 -0.145000
45601.184000 -0.135000
45601.188000 -0.155000
45601.192000 -0.170000
45601.196000 -0.225000
45601.200000 -0.240000
45601.204000 -0.280000
45601.208000 -0.285000
45601.212000 -0.265000
45601.216000 -0.275000
45601.220000 -0.265000
45601.224000 -0.280000
45601.228000 -0.280000
45601.232000 -0.290000
45601.236000 -0.310000
45601.240000 -0.280000
45601.244000 -0.285000
45601.248000 -0.290000
45601.252000 -0.280000
45601.256000 -0.280000
45601.260000 -0.265000
45601.264000 -0.220000
45601.268000 -0.195000
45601.272000 -0.180000
45601.276000 -0.140000
45601.280000 -0.115000
45601.284000 -0.110000
45601.288000 -0.100000
45601.292000 -0.105000
45601.296000 -0.125000
45601.300000 -0.135000
45601.304000 -0.170000
45601.308000 -0.190000
45601.312000 -0.185000
45601.316000 -0.125000
45601.320000 -0.065000
45601.324000 -0.030000
45601.328000 -0.025000
45601.332000 -0.065000
45601.336000 -0.070000
45601.340000 -0.095000
45601.344000 -0.125000
45601.348000 -0.160000
45601.352000 -0.195000
45601.356000 -0.140000
45601.360000 -0.060000
45601.364000 0.065000
45601.368000 0.200000
45601.372000 0.320000
45601.376000 0.445000
45601.380000 0.585000
45601.384000 0.730000
45601.388000 0.885000
45601.392000 1.020000
45601.396000 1.215000
45601.400000 1.435000
45601.404000 1.650000
45601.408000 1.785000
45601.412000 1.850000
45601.416000 1.795000
45601.420000 1.640000
45601.424000 1.390000
45601.428000 1.025000
45601.432000 0.645000
45601.436000 0.260000
45601.440000 -0.155000
45601.444000 -0.485000
45601.448000 -0.665000
45601.452000 -0.755000
45601.456000 -0.850000
45601.460000 -0.955000
45601.464000 -1.030000
45601.468000 -1.090000
45601.472000 -1.100000
45601.476000 -1.100000
45601.480000 -1.100000
45601.484000 -1.095000
45601.488000 -1.085000
45601.492000 -1.110000
45601.496000 -1.115000
45601.500000 -1.115000
45601.504000 -1.170000
45601.508000 -1.230000
45601.512000 -1.295000
45601.516000 -1.320000
45601.520000 -1.350000
45601.524000 -1.370000
45601.528000 -1.385000
45601.532000 -1.400000
45601.536000 -1.420000
45601.540000 -1.445000
45601.544000 -1.465000
45601.548000 -1.495000
45601.552000 -1.490000
45601.556000 -1.465000
45601.560000 -1.465000
45601.564000 -1.470000
45601.568000 -1.490000
45601.572000 -1.470000
45601.576000 -1.455000
45601.580000 -1.435000
45601.584000 -1.405000
45601.588000 -1.380000
45601.592000 -1.345000
45601.596000 -1.295000
45601.600000 -1.265000
45601.604000 -1.240000
45601.608000 -1.175000
45601.612000 -1.135000
45601.616000 -1.115000
45601.620000 -1.070000
45601.624000 -1.010000
45601.628000 -0.960000
45601.632000 -0.915000
45601.636000 -0.870000
45601.640000 -0.830000
45601.644000 -0.815000
45601.648000 -0.765000
45601.652000 -0.710000
45601.656000 -0.685000
45601.660000 -0.640000
45601.664000 -0.615000
45601.668000 -0.565000
45601.672000 -0.535000
45601.676000 -0.495000
45601.680000 -0.505000
45601.684000 -0.535000
45601.688000 -0.535000
45601.692000 -0.545000
45601.696000 -0.540000
45601.700000 -0.505000
45601.704000 -0.465000
45601.708000 -0.500000
45601.712000 -0.480000
45601.716000 -0.490000
45601.720000 -0.490000
45601.724000 -0.485000
45601.728000 -0.475000
45601.732000 -0.495000
45601.736000 -0.505000
45601.740000 -0.510000
45601.744000 -0.520000
45601.748000 -0.515000
45601.752000 -0.470000
45601.756000 -0.440000
45601.760000 -0.410000
45601.764000 -0.415000
45601.768000 -0.435000
45601.772000 -0.440000
45601.776000 -0.445000
45601.780000 -0.415000
45601.784000 -0.365000
45601.788000 -0.395000
45601.792000 -0.465000
45601.796000 -0.490000
45601.800000 -0.490000
45601.804000 -0.470000
45601.808000 -0.480000
45601.812000 -0.485000
45601.816000 -0.480000
45601.820000 -0.450000
45601.824000 -0.420000
45601.828000 -0.410000
45601.832000 -0.375000
45601.836000 -0.365000
45601.840000 -0.325000
45601.844000 -0.305000
45601.848000 -0.250000
45601.852000 -0.205000
45601.856000 -0.205000
45601.860000 -0.185000
45601.864000 -0.215000
45601.868000 -0.235000
45601.872000 -0.295000
45601.876000 -0.285000
45601.880000 -0.300000
45601.884000 -0.325000
45601.888000 -0.335000
45601.892000 -0.335000
45601.896000 -0.340000
45601.900000 -0.330000
45601.904000 -0.305000
45601.908000 -0.310000
45601.912000 -0.315000
45601.916000 -0.350000
45601.920000 -0.370000
45601.924000 -0.375000
45601.928000 -0.385000
45601.932000 -0.380000
45601.936000 -0.365000
45601.940000 -0.360000
45601.944000 -0.350000
45601.948000 -0.365000
45601.952000 -0.360000
45601.956000 -0.370000
45601.960000 -0.365000
45601.964000 -0.370000
45601.968000 -0.370000
45601.972000 -0.360000
45601.976000 -0.375000
45601.980000 -0.380000
45601.984000 -0.365000
45601.988000 -0.330000
45601.992000 -0.345000
45601.996000 -0.340000
45602.000000 -0.345000
45602.004000 -0.340000
45602.008000 -0.325000
45602.012000 -0.295000
45602.016000 -0.275000
45602.020000 -0.270000
45602.024000 -0.275000
45602.028000 -0.190000
45602.032000 -0.090000
45602.036000 0.015000
45602.040000 -0.005000
45602.044000 -0.155000
45602.048000 -0.420000
45602.052000 -0.740000
45602.056000 -1.075000
45602.060000 -1.385000
45602.064000 -1.700000
45602.068000 -1.950000
45602.072000 -2.145000
45602.076000 -2.255000
45602.080000 -2.220000
45602.084000 -1.955000
45602.088000 -1.545000
45602.092000 -1.220000
45602.096000 -0.990000
45602.100000 -0.825000
45602.104000 -0.755000
45602.108000 -0.735000
45602.112000 -0.695000
45602.116000 -0.590000
45602.120000 -0.490000
45602.124000 -0.405000
45602.128000 -0.385000
45602.132000 -0.375000
45602.136000 -0.400000
45602.140000 -0.430000
45602.144000 -0.425000
45602.148000 -0.390000
45602.152000 -0.380000
45602.156000 -0.400000
45602.160000 -0.400000
45602.164000 -0.405000
45602.168000 -0.370000
45602.172000 -0.340000
45602.176000 -0.315000
45602.180000 -0.315000
45602.184000 -0.300000
45602.188000 -0.260000
45602.192000 -0.230000
45602.196000 -0.200000
45602.200000 -0.185000
45602.204000 -0.180000
45602.208000 -0.145000
45602.212000 -0.150000
45602.216000 -0.110000
45602.220000 -0.105000
45602.224000 -0.060000
45602.228000 -0.075000
45602.232000 -0.050000
45602.236000 -0.055000
45602.240000 -0.025000
45602.244000 -0.020000
45602.248000 0.020000
45602.252000 0.015000
45602.256000 0.020000
45602.260000 0.005000
45602.264000 0.015000
45602.268000 0.015000
45602.272000 0.000000
45602.276000 0.015000
45602.280000 0.050000
45602.284000 0.040000
45602.288000 0.025000
45602.292000 0.020000
45602.296000 0.025000
45602.300000 0.030000
45602.304000 0.015000
45602.308000 0.010000
45602.312000 -0.035000
45602.316000 -0.040000
45602.320000 -0.045000
45602.324000 -0.075000
45602.328000 -0.095000
45602.332000 -0.135000
45602.336000 -0.135000
45602.340000 -0.160000
45602.344000 -0.205000
45602.348000 -0.240000
45602.352000 -0.290000
45602.356000 -0.290000
45602.360000 -0.315000
45602.364000 -0.345000
45602.368000 -0.345000
45602.372000 -0.360000
45602.376000 -0.365000
45602.380000 -0.380000
45602.384000 -0.350000
45602.388000 -0.355000
45602.392000 -0.360000
45602.396000 -0.350000
45602.400000 -0.320000
45602.404000 -0.305000
45602.408000 -0.250000
45602.412000 -0.245000
45602.416000 -0.205000
45602.420000 -0.200000
45602.424000 -0.175000
45602.428000 -0.155000
45602.432000 -0.110000
45602.436000 -0.120000
45602.440000 -0.130000
45602.444000 -0.220000
45602.448000 -0.290000
45602.452000 -0.275000
45602.456000 -0.255000
45602.460000 -0.295000
45602.464000 -0.335000
45602.468000 -0.385000
45602.472000 -0.385000
45602.476000 -0.365000
45602.480000 -0.335000
45602.484000 -0.315000
45602.488000 -0.330000
45602.492000 -0.320000
45602.496000 -0.310000
45602.500000 -0.285000
45602.504000 -0.305000
45602.508000 -0.300000
45602.512000 -0.315000
45602.516000 -0.320000
45602.520000 -0.300000
45602.524000 -0.305000
45602.528000 -0.325000
45602.532000 -0.350000
45602.536000 -0.380000
45602.540000 -0.345000
45602.544000 -0.370000
45602.548000 -0.360000
45602.552000 -0.340000
45602.556000 -0.365000
45602.560000 -0.355000
45602.564000 -0.380000
45602.568000 -0.355000
45602.572000 -0.355000
45602.576000 -0.355000
45602.580000 -0.350000
45602.584000 -0.310000
45602.588000 -0.310000
45602.592000 -0.285000
45602.596000 -0.280000
45602.600000 -0.255000
45602.604000 -0.265000
45602.608000 -0.230000
45602.612000 -0.120000
45602.616000 -0.045000
45602.620000 -0.005000
45602.624000 -0.120000
45602.628000 -0.355000
45602.632000 -0.700000
45602.636000 -1.030000
45602.640000 -1.365000
45602.644000 -1.700000
45602.648000 -1.955000
45602.652000 -2.180000
45602.656000 -2.300000
45602.660000 -2.270000
45602.664000 -2.050000
45602.668000 -1.730000
45602.672000 -1.410000
45602.676000 -1.120000
45602.680000 -0.950000
45602.684000 -0.840000
45602.688000 -0.775000
45602.692000 -0.720000
45602.696000 -0.640000
45602.700000 -0.585000
45602.704000 -0.525000
45602.708000 -0.510000
45602.712000 -0.485000
45602.716000 -0.430000
45602.720000 -0.435000
45602.724000 -0.425000
45602.728000 -0.420000
45602.732000 -0.400000
45602.736000 -0.360000
45602.740000 -0.350000
45602.744000 -0.340000
45602.748000 -0.295000
45602.752000 -0.315000
45602.756000 -0.340000
45602.760000 -0.370000
45602.764000 -0.360000
45602.768000 -0.305000
45602.772000 -0.270000
45602.776000 -0.275000
45602.780000 -0.255000
45602.784000 -0.275000
45602.788000 -0.265000
45602.792000 -0.255000
45602.796000 -0.220000
45602.800000 -0.205000
45602.804000 -0.145000
45602.808000 -0.085000
45602.812000 -0.055000
45602.816000 -0.040000
45602.820000 -0.045000
45602.824000 -0.025000
45602.828000 -0.020000
45602.832000 -0.030000
45602.836000 -0.025000
45602.840000 -0.010000
45602.844000 -0.040000
45602.848000 -0.050000
45602.852000 -0.045000
45602.856000 -0.045000
45602.860000 -0.080000
45602.864000 -0.065000
45602.868000 -0.065000
45602.872000 -0.070000
45602.876000 -0.075000
45602.880000 -0.095000
45602.884000 -0.105000
45602.888000 -0.155000
45602.892000 -0.160000
45602.896000 -0.165000
45602.900000 -0.170000
45602.904000 -0.195000
45602.908000 -0.205000
45602.912000 -0.240000
45602.916000 -0.250000
45602.920000 -0.255000
45602.924000 -0.280000
45602.928000 -0.290000
45602.932000 -0.315000
45602.936000 -0.320000
45602.940000 -0.335000
45602.944000 -0.320000
45602.948000 -0.335000
45602.952000 -0.345000
45602.956000 -0.320000
45602.960000 -0.305000
45602.964000 -0.310000
45602.968000 -0.325000
45602.972000 -0.320000
45602.976000 -0.295000
45602.980000 -0.300000
45602.984000 -0.285000
45602.988000 -0.240000
45602.992000 -0.185000
45602.996000 -0.155000
45603.000000 -0.160000
45603.004000 -0.160000
45603.008000 -0.140000
45603.012000 -0.130000
45603.016000 -0.150000
45603.020000 -0.200000
45603.024000 -0.280000
45603.028000 -0.295000
45603.032000 -0.350000
45603.036000 -0.375000
45603.040000 -0.355000
45603.044000 -0.345000
45603.048000 -0.330000
45603.052000 -0.325000
45603.056000 -0.320000
45603.060000 -0.345000
45603.064000 -0.335000
45603.068000 -0.350000
45603.072000 -0.360000
45603.076000 -0.345000
45603.080000 -0.335000
45603.084000 -0.345000
45603.088000 -0.340000
45603.092000 -0.330000
45603.096000 -0.340000
45603.100000 -0.340000
45603.104000 -0.350000
45603.108000 -0.335000
45603.112000 -0.350000
45603.116000 -0.360000
45603.120000 -0.360000
45603.124000 -0.340000
45603.128000 -0.310000
45603.132000 -0.275000
45603.136000 -0.320000
45603.140000 -0.425000
45603.144000 -0.470000
45603.148000 -0.440000
45603.152000 -0.390000
45603.156000 -0.345000
45603.160000 -0.290000
45603.164000 -0.290000
45603.168000 -0.285000
45603.172000 -0.240000
45603.176000 -0.230000
45603.180000 -0.190000
45603.184000 -0.105000
45603.188000 -0.020000
45603.192000 0.010000
45603.196000 -0.125000
45603.200000 -0.445000
45603.204000 -0.790000
45603.208000 -1.100000
45603.212000 -1.435000
45603.216000 -1.790000
45603.220000 -2.100000
45603.224000 -2.405000
45603.228000 -2.580000
45603.232000 -2.585000
45603.236000 -2.310000
45603.240000 -1.875000
45603.244000 -1.465000
45603.248000 -1.195000
45603.252000 -1.025000
45603.256000 -0.920000
45603.260000 -0.785000
45603.264000 -0.630000
45603.268000 -0.540000
45603.272000 -0.505000
45603.276000 -0.515000
45603.280000 -0.510000
45603.284000 -0.460000
45603.288000 -0.415000
45603.292000 -0.375000
45603.296000 -0.335000
45603.300000 -0.335000
45603.304000 -0.350000
45603.308000 -0.330000
45603.312000 -0.305000
45603.316000 -0.305000
45603.320000 -0.310000
45603.324000 -0.290000
45603.328000 -0.300000
45603.332000 -0.285000
45603.336000 -0.250000
45603.340000 -0.210000
45603.344000 -0.230000
45603.348000 -0.220000
45603.352000 -0.205000
45603.356000 -0.190000
45603.360000 -0.160000
45603.364000 -0.170000
45603.368000 -0.175000
45603.372000 -0.150000
45603.376000 -0.135000
45603.380000 -0.130000
45603.384000 -0.090000
45603.388000 -0.075000
45603.392000 -0.055000
45603.396000 -0.030000
45603.400000 -0.045000
45603.404000 -0.045000
45603.408000 -0.045000
45603.412000 -0.035000
45603.416000 -0.040000
45603.420000 -0.065000
45603.424000 -0.070000
45603.428000 -0.040000
45603.432000 -0.075000
45603.436000 -0.085000
45603.440000 -0.100000
45603.444000 -0.125000
45603.448000 -0.145000
45603.452000 -0.145000
45603.456000 -0.180000
45603.460000 -0.200000
45603.464000 -0.205000
45603.468000 -0.245000
45603.472000 -0.285000
45603.476000 -0.305000
45603.480000 -0.300000
45603.484000 -0.330000
45603.488000 -0.335000
45603.492000 -0.380000
45603.496000 -0.425000
45603.500000 -0.420000
45603.504000 -0.450000
45603.508000 -0.440000
45603.512000 -0.445000
45603.516000 -0.465000
45603.520000 -0.450000
45603.524000 -0.460000
45603.528000 -0.460000
45603.532000 -0.435000
45603.536000 -0.440000
45603.540000 -0.465000
45603.544000 -0.450000
45603.548000 -0.445000
45603.552000 -0.440000
45603.556000 -0.390000
45603.560000 -0.360000
45603.564000 -0.345000
45603.568000 -0.325000
45603.572000 -0.335000
45603.576000 -0.330000
45603.580000 -0.325000
45603.584000 -0.305000
45603.588000 -0.330000
45603.592000 -0.380000
45603.596000 -0.400000
45603.600000 -0.435000
45603.604000 -0.430000
45603.608000 -0.455000
45603.612000 -0.465000
45603.616000 -0.460000
45603.620000 -0.450000
45603.624000 -0.465000
45603.628000 -0.470000
45603.632000 -0.500000
45603.636000 -0.485000
45603.640000 -0.470000
45603.644000 -0.485000
45603.648000 -0.500000
45603.652000 -0.515000
45603.656000 -0.525000
45603.660000 -0.510000
45603.664000 -0.510000
45603.668000 -0.490000
45603.672000 -0.530000
45603.676000 -0.530000
45603.680000 -0.510000
45603.684000 -0.530000
45603.688000 -0.530000
45603.692000 -0.510000
45603.696000 -0.515000
45603.700000 -0.530000
45603.704000 -0.525000
45603.708000 -0.520000
45603.712000 -0.530000
45603.716000 -0.530000
45603.720000 -0.530000
45603.724000 -0.500000
45603.728000 -0.475000
45603.732000 -0.465000
45603.736000 -0.430000
45603.740000 -0.445000
45603.744000 -0.445000
45603.748000 -0.415000
45603.752000 -0.305000
45603.756000 -0.155000
45603.760000 -0.085000
45603.764000 -0.155000
45603.768000 -0.390000
45603.772000 -0.730000
45603.776000 -1.055000
45603.780000 -1.370000
45603.784000 -1.725000
45603.788000 -2.090000
45603.792000 -2.340000
45603.796000 -2.540000
45603.800000 -2.630000
45603.804000 -2.555000
45603.808000 -2.215000
45603.812000 -1.830000
45603.816000 -1.490000
45603.820000 -1.270000
45603.824000 -1.080000
45603.828000 -0.955000
45603.832000 -0.880000
45603.836000 -0.775000
45603.840000 -0.720000
45603.844000 -0.660000
45603.848000 -0.660000
45603.852000 -0.630000
45603.856000 -0.600000
45603.860000 -0.595000
45603.864000 -0.550000
45603.868000 -0.580000
45603.872000 -0.590000
45603.876000 -0.580000
45603.880000 -0.545000
45603.884000 -0.550000
45603.888000 -0.515000
45603.892000 -0.510000
45603.896000 -0.490000
45603.900000 -0.490000
45603.904000 -0.480000
45603.908000 -0.445000
45603.912000 -0.440000
45603.916000 -0.455000
45603.920000 -0.440000
45603.924000 -0.420000
45603.928000 -0.370000
45603.932000 -0.335000
45603.936000 -0.320000
45603.940000 -0.340000
45603.944000 -0.315000
45603.948000 -0.290000
45603.952000 -0.280000
45603.956000 -0.250000
45603.960000 -0.230000
45603.964000 -0.205000
45603.968000 -0.205000
45603.972000 -0.195000
45603.976000 -0.180000
45603.980000 -0.175000
45603.984000 -0.170000
45603.988000 -0.195000
45603.992000 -0.190000
45603.996000 -0.165000
45604.000000 -0.170000
45604.004000 -0.185000
45604.008000 -0.200000
45604.012000 -0.205000
45604.016000 -0.210000
45604.020000 -0.250000
45604.024000 -0.250000
45604.028000 -0.300000
45604.032000 -0.310000
45604.036000 -0.340000
45604.040000 -0.340000
45604.044000 -0.375000
45604.048000 -0.380000
45604.052000 -0.415000
45604.056000 -0.435000
45604.060000 -0.415000
45604.064000 -0.425000
45604.068000 -0.440000
45604.072000 -0.440000
45604.076000 -0.405000
45604.080000 -0.470000
45604.084000 -0.515000
45604.088000 -0.525000
45604.092000 -0.520000
45604.096000 -0.490000
45604.100000 -0.465000
45604.104000 -0.460000
45604.108000 -0.495000
45604.112000 -0.470000
45604.116000 -0.455000
45604.120000 -0.440000
45604.124000 -0.410000
45604.128000 -0.365000
45604.132000 -0.340000
45604.136000 -0.330000
45604.140000 -0.370000
45604.144000 -0.360000
45604.148000 -0.365000
45604.152000 -0.350000
45604.156000 -0.340000
45604.160000 -0.355000
45604.164000 -0.415000
45604.168000 -0.465000
45604.172000 -0.485000
45604.176000 -0.515000
45604.180000 -0.545000
45604.184000 -0.535000
45604.188000 -0.515000
45604.192000 -0.515000
45604.196000 -0.525000
45604.200000 -0.510000
45604.204000 -0.500000
45604.208000 -0.490000
45604.212000 -0.500000
45604.216000 -0.505000
45604.220000 -0.500000
45604.224000 -0.490000
45604.228000 -0.475000
45604.232000 -0.475000
45604.236000 -0.485000
45604.240000 -0.495000
45604.244000 -0.530000
45604.248000 -0.540000
45604.252000 -0.520000
45604.256000 -0.510000
45604.260000 -0.505000
45604.264000 -0.485000
45604.268000 -0.505000
45604.272000 -0.505000
45604.276000 -0.515000
45604.280000 -0.510000
45604.284000 -0.505000
45604.288000 -0.470000
45604.292000 -0.465000
45604.296000 -0.445000
45604.300000 -0.445000
45604.304000 -0.405000
45604.308000 -0.370000
45604.312000 -0.385000
45604.316000 -0.390000
45604.320000 -0.370000
45604.324000 -0.315000
45604.328000 -0.185000
45604.332000 -0.075000
45604.336000 -0.065000
45604.340000 -0.220000
45604.344000 -0.505000
45604.348000 -0.815000
45604.352000 -1.150000
45604.356000 -1.510000
45604.360000 -1.860000
45604.364000 -2.070000
45604.368000 -2.255000
45604.372000 -2.330000
45604.376000 -2.275000
45604.380000 -1.965000
45604.384000 -1.625000
45604.388000 -1.335000
45604.392000 -1.125000
45604.396000 -0.965000
45604.400000 -0.845000
45604.404000 -0.770000
45604.408000 -0.715000
45604.412000 -0.670000
45604.416000 -0.615000
45604.420000 -0.550000
45604.424000 -0.540000
45604.428000 -0.530000
45604.432000 -0.550000
45604.436000 -0.535000
45604.440000 -0.485000
45604.444000 -0.480000
45604.448000 -0.440000
45604.452000 -0.410000
45604.456000 -0.415000
45604.460000 -0.440000
45604.464000 -0.450000
45604.468000 -0.455000
45604.472000 -0.420000
45604.476000 -0.390000
45604.480000 -0.360000
45604.484000 -0.320000
45604.488000 -0.320000
45604.492000 -0.315000
45604.496000 -0.320000
45604.500000 -0.310000
45604.504000 -0.280000
45604.508000 -0.240000
45604.512000 -0.210000
45604.516000 -0.220000
45604.520000 -0.220000
45604.524000 -0.205000
45604.528000 -0.175000
45604.532000 -0.160000
45604.536000 -0.090000
45604.540000 -0.075000
45604.544000 -0.115000
45604.548000 -0.145000
45604.552000 -0.160000
45604.556000 -0.115000
45604.560000 -0.135000
45604.564000 -0.100000
45604.568000 -0.145000
45604.572000 -0.135000
45604.576000 -0.140000
45604.580000 -0.180000
45604.584000 -0.145000
45604.588000 -0.180000
45604.592000 -0.205000
45604.596000 -0.235000
45604.600000 -0.215000
45604.604000 -0.230000
45604.608000 -0.260000
45604.612000 -0.295000
45604.616000 -0.300000
45604.620000 -0.315000
45604.624000 -0.340000
45604.628000 -0.360000
45604.632000 -0.365000
45604.636000 -0.380000
45604.640000 -0.385000
45604.644000 -0.355000
45604.648000 -0.325000
45604.652000 -0.325000
45604.656000 -0.365000
45604.660000 -0.470000
45604.664000 -0.525000
45604.668000 -0.530000
45604.672000 -0.500000
45604.676000 -0.485000
45604.680000 -0.465000
45604.684000 -0.430000
45604.688000 -0.420000
45604.692000 -0.385000
45604.696000 -0.375000
45604.700000 -0.300000
45604.704000 -0.270000
45604.708000 -0.210000
45604.712000 -0.180000
45604.716000 -0.185000
45604.720000 -0.180000
45604.724000 -0.260000
45604.728000 -0.355000
45604.732000 -0.370000
45604.736000 -0.385000
45604.740000 -0.385000
45604.744000 -0.425000
45604.748000 -0.440000
45604.752000 -0.440000
45604.756000 -0.400000
45604.760000 -0.455000
45604.764000 -0.465000
45604.768000 -0.495000
45604.772000 -0.465000
45604.776000 -0.445000
45604.780000 -0.405000
45604.784000 -0.425000
45604.788000 -0.430000
45604.792000 -0.450000
45604.796000 -0.450000
45604.800000 -0.430000
45604.804000 -0.405000
45604.808000 -0.400000
45604.812000 -0.395000
45604.816000 -0.395000
45604.820000 -0.445000
45604.824000 -0.450000
45604.828000 -0.460000
45604.832000 -0.450000
45604.836000 -0.445000
45604.840000 -0.455000
45604.844000 -0.440000
45604.848000 -0.455000
45604.852000 -0.485000
45604.856000 -0.455000
45604.860000 -0.450000
45604.864000 -0.435000
45604.868000 -0.395000
45604.872000 -0.390000
45604.876000 -0.390000
45604.880000 -0.390000
45604.884000 -0.375000
45604.888000 -0.365000
45604.892000 -0.320000
45604.896000 -0.205000
45604.900000 -0.085000
45604.904000 -0.080000
45604.908000 -0.235000
45604.912000 -0.550000
45604.916000 -0.895000
45604.920000 -1.220000
45604.924000 -1.580000
45604.928000 -1.920000
45604.932000 -2.205000
45604.936000 -2.415000
45604.940000 -2.545000
45604.944000 -2.535000
45604.948000 -2.310000
45604.952000 -1.950000
45604.956000 -1.610000
45604.960000 -1.305000
45604.964000 -1.100000
45604.968000 -0.975000
45604.972000 -0.870000
45604.976000 -0.770000
45604.980000 -0.680000
45604.984000 -0.620000
45604.988000 -0.560000
45604.992000 -0.505000
45604.996000 -0.500000
