3751 2
275 -0.645
275 -0.635
275.01 -0.645
275.01 -0.635
275.02 -0.645
275.02 -0.63
275.02 -0.63
275.03 -0.635
275.03 -0.625
275.04 -0.645
275.04 -0.63
275.04 -0.62
275.05 -0.62
275.05 -0.61
275.06 -0.62
275.06 -0.595
275.06 -0.585
275.07 -0.59
275.07 -0.585
275.08 -0.565
275.08 -0.57
275.08 -0.555
275.09 -0.53
275.09 -0.5
275.1 -0.475
275.1 -0.465
275.1 -0.46
275.11 -0.46
275.11 -0.45
275.12 -0.445
275.12 -0.43
275.12 -0.415
275.13 -0.4
275.13 -0.38
275.14 -0.38
275.14 -0.4
275.14 -0.415
275.15 -0.405
275.15 -0.42
275.16 -0.42
275.16 -0.415
275.16 -0.425
275.17 -0.415
275.17 -0.43
275.18 -0.44
275.18 -0.435
275.18 -0.455
275.19 -0.465
275.19 -0.47
275.2 -0.475
275.2 -0.45
275.2 -0.465
275.21 -0.465
275.21 -0.465
275.22 -0.485
275.22 -0.47
275.22 -0.49
275.23 -0.5
275.23 -0.495
275.24 -0.5
275.24 -0.51
275.24 -0.515
275.25 -0.515
275.25 -0.52
275.26 -0.525
275.26 -0.51
275.26 -0.52
275.27 -0.505
275.27 -0.5
275.28 -0.49
275.28 -0.48
275.28 -0.525
275.29 -0.515
275.29 -0.525
275.3 -0.515
275.3 -0.51
275.3 -0.5
275.31 -0.5
275.31 -0.475
275.32 -0.485
275.32 -0.48
275.32 -0.5
275.33 -0.505
275.33 -0.48
275.34 -0.475
275.34 -0.485
275.34 -0.475
275.35 -0.47
275.35 -0.495
275.36 -0.485
275.36 -0.5
275.36 -0.475
275.37 -0.465
275.37 -0.445
275.38 -0.41
275.38 -0.395
275.38 -0.37
275.39 -0.345
275.39 -0.345
275.4 -0.34
275.4 -0.34
275.4 -0.33
275.41 -0.315
275.41 -0.295
275.42 -0.25
275.42 -0.23
275.42 -0.25
275.43 -0.26
275.43 -0.3
275.44 -0.305
275.44 -0.34
275.44 -0.335
275.45 -0.345
275.45 -0.36
275.46 -0.36
275.46 -0.375
275.46 -0.385
275.47 -0.41
275.47 -0.42
275.48 -0.435
275.48 -0.455
275.48 -0.475
275.49 -0.485
275.49 -0.51
275.5 -0.525
275.5 -0.53
275.5 -0.54
275.51 -0.55
275.51 -0.56
275.52 -0.54
275.52 -0.54
275.52 -0.53
275.53 -0.53
275.53 -0.52
275.54 -0.525
275.54 -0.515
275.54 -0.535
275.55 -0.55
275.55 -0.555
275.56 -0.535
275.56 -0.49
275.56 -0.495
275.57 -0.5
275.57 -0.495
275.58 -0.495
275.58 -0.475
275.58 -0.45
275.59 -0.43
275.59 -0.35
275.6 -0.23
275.6 -0.07
275.6 0.095
275.61 0.31
275.61 0.47
275.62 0.55
275.62 0.57
275.62 0.605
275.63 0.58
275.63 0.505
275.64 0.43
275.64 0.36
275.64 0.315
275.65 0.305
275.65 0.335
275.66 0.345
275.66 0.32
275.66 0.27
275.67 0.165
275.67 0.08
275.68 0.06
275.68 0.135
275.68 0.255
275.69 0.31
275.69 0.275
275.7 0.11
275.7 -0.11
275.7 -0.295
275.71 -0.385
275.71 -0.39
275.72 -0.375
275.72 -0.375
275.72 -0.455
275.73 -0.54
275.73 -0.585
275.74 -0.585
275.74 -0.565
275.74 -0.55
275.75 -0.535
275.75 -0.54
275.76 -0.54
275.76 -0.54
275.76 -0.56
275.77 -0.535
275.77 -0.55
275.78 -0.56
275.78 -0.54
275.78 -0.54
275.79 -0.535
275.79 -0.53
275.8 -0.56
275.8 -0.555
275.8 -0.57
275.81 -0.555
275.81 -0.575
275.82 -0.57
275.82 -0.575
275.82 -0.555
275.83 -0.57
275.83 -0.59
275.84 -0.6
275.84 -0.6
275.84 -0.61
275.85 -0.62
275.85 -0.61
275.86 -0.64
275.86 -0.62
275.86 -0.62
275.87 -0.64
275.87 -0.635
275.88 -0.635
275.88 -0.665
275.88 -0.645
275.89 -0.655
275.89 -0.64
275.9 -0.65
275.9 -0.645
275.9 -0.665
275.91 -0.665
275.91 -0.675
275.92 -0.675
275.92 -0.675
275.92 -0.655
275.93 -0.66
275.93 -0.645
275.94 -0.625
275.94 -0.65
275.94 -0.665
275.95 -0.675
275.95 -0.665
275.96 -0.645
275.96 -0.64
275.96 -0.625
275.97 -0.605
275.97 -0.615
275.98 -0.61
275.98 -0.595
275.98 -0.59
275.99 -0.585
275.99 -0.58
276 -0.555
276 -0.54
276 -0.51
276.01 -0.485
276.01 -0.48
276.02 -0.455
276.02 -0.45
276.02 -0.445
276.03 -0.435
276.03 -0.43
276.04 -0.405
276.04 -0.39
276.04 -0.415
276.05 -0.425
276.05 -0.42
276.06 -0.425
276.06 -0.4
276.06 -0.41
276.07 -0.4
276.07 -0.395
276.08 -0.405
276.08 -0.42
276.08 -0.43
276.09 -0.43
276.09 -0.44
276.1 -0.45
276.1 -0.445
276.1 -0.435
276.11 -0.435
276.11 -0.42
276.12 -0.445
276.12 -0.44
276.12 -0.435
276.13 -0.44
276.13 -0.45
276.14 -0.465
276.14 -0.47
276.14 -0.465
276.15 -0.445
276.15 -0.47
276.16 -0.455
276.16 -0.48
276.16 -0.47
276.17 -0.46
276.17 -0.45
276.18 -0.465
276.18 -0.45
276.18 -0.415
276.19 -0.425
276.19 -0.43
276.2 -0.445
276.2 -0.44
276.2 -0.445
276.21 -0.44
276.21 -0.43
276.22 -0.435
276.22 -0.425
276.22 -0.435
276.23 -0.435
276.23 -0.45
276.24 -0.46
276.24 -0.44
276.24 -0.45
276.25 -0.4
276.25 -0.41
276.26 -0.425
276.26 -0.41
276.26 -0.42
276.27 -0.38
276.27 -0.39
276.28 -0.355
276.28 -0.325
276.28 -0.3
276.29 -0.275
276.29 -0.265
276.3 -0.26
276.3 -0.25
276.3 -0.245
276.31 -0.235
276.31 -0.215
276.32 -0.185
276.32 -0.175
276.32 -0.195
276.33 -0.23
276.33 -0.25
276.34 -0.26
276.34 -0.27
276.34 -0.28
276.35 -0.315
276.35 -0.34
276.36 -0.335
276.36 -0.325
276.36 -0.34
276.37 -0.365
276.37 -0.385
276.38 -0.425
276.38 -0.45
276.38 -0.465
276.39 -0.47
276.39 -0.48
276.4 -0.47
276.4 -0.48
276.4 -0.48
276.41 -0.485
276.41 -0.48
276.42 -0.47
276.42 -0.475
276.42 -0.495
276.43 -0.47
276.43 -0.465
276.44 -0.46
276.44 -0.47
276.44 -0.485
276.45 -0.48
276.45 -0.49
276.46 -0.48
276.46 -0.47
276.46 -0.455
276.47 -0.455
276.47 -0.46
276.48 -0.43
276.48 -0.415
276.48 -0.37
276.49 -0.315
276.49 -0.24
276.5 -0.12
276.5 0.065
276.5 0.3
276.51 0.505
276.51 0.6
276.52 0.7
276.52 0.74
276.52 0.745
276.53 0.67
276.53 0.59
276.54 0.51
276.54 0.445
276.54 0.43
276.55 0.435
276.55 0.445
276.56 0.435
276.56 0.36
276.56 0.235
276.57 0.125
276.57 0.075
276.58 0.15
276.58 0.31
276.58 0.39
276.59 0.38
276.59 0.22
276.6 0
276.6 -0.205
276.6 -0.335
276.61 -0.4
276.61 -0.41
276.62 -0.415
276.62 -0.48
276.62 -0.52
276.63 -0.56
276.63 -0.575
276.64 -0.56
276.64 -0.565
276.64 -0.57
276.65 -0.565
276.65 -0.555
276.66 -0.54
276.66 -0.555
276.66 -0.53
276.67 -0.545
276.67 -0.56
276.68 -0.575
276.68 -0.58
276.68 -0.56
276.69 -0.55
276.69 -0.53
276.7 -0.53
276.7 -0.555
276.7 -0.565
276.71 -0.58
276.71 -0.595
276.72 -0.59
276.72 -0.6
276.72 -0.58
276.73 -0.565
276.73 -0.595
276.74 -0.6
276.74 -0.6
276.74 -0.615
276.75 -0.625
276.75 -0.635
276.76 -0.615
276.76 -0.62
276.76 -0.63
276.77 -0.635
276.77 -0.665
276.78 -0.67
276.78 -0.68
276.78 -0.66
276.79 -0.67
276.79 -0.69
276.8 -0.67
276.8 -0.675
276.8 -0.69
276.81 -0.695
276.81 -0.695
276.82 -0.705
276.82 -0.725
276.82 -0.705
276.83 -0.685
276.83 -0.695
276.84 -0.69
276.84 -0.66
276.84 -0.66
276.85 -0.67
276.85 -0.685
276.86 -0.67
276.86 -0.67
276.86 -0.64
276.87 -0.65
276.87 -0.655
276.88 -0.65
276.88 -0.61
276.88 -0.605
276.89 -0.59
276.89 -0.56
276.9 -0.555
276.9 -0.53
276.9 -0.5
276.91 -0.47
276.91 -0.48
276.92 -0.445
276.92 -0.42
276.92 -0.425
276.93 -0.43
276.93 -0.405
276.94 -0.385
276.94 -0.375
276.94 -0.37
276.95 -0.36
276.95 -0.345
276.96 -0.36
276.96 -0.355
276.96 -0.375
276.97 -0.39
276.97 -0.37
276.98 -0.355
276.98 -0.37
276.98 -0.36
276.99 -0.365
276.99 -0.385
277 -0.4
277 -0.425
277 -0.42
277.01 -0.435
277.01 -0.41
277.02 -0.405
277.02 -0.4
277.02 -0.42
277.03 -0.415
277.03 -0.405
277.04 -0.425
277.04 -0.435
277.04 -0.43
277.05 -0.435
277.05 -0.435
277.06 -0.44
277.06 -0.405
277.06 -0.425
277.07 -0.43
277.07 -0.435
277.08 -0.45
277.08 -0.44
277.08 -0.435
277.09 -0.425
277.09 -0.425
277.1 -0.385
277.1 -0.385
277.1 -0.4
277.11 -0.41
277.11 -0.44
277.12 -0.415
277.12 -0.42
277.12 -0.39
277.13 -0.38
277.13 -0.395
277.14 -0.385
277.14 -0.395
277.14 -0.385
277.15 -0.4
277.15 -0.41
277.16 -0.41
277.16 -0.405
277.16 -0.385
277.17 -0.39
277.17 -0.4
277.18 -0.39
277.18 -0.39
277.18 -0.38
277.19 -0.35
277.19 -0.335
277.2 -0.315
277.2 -0.275
277.2 -0.245
277.21 -0.225
277.21 -0.23
277.22 -0.22
277.22 -0.225
277.22 -0.195
277.23 -0.155
277.23 -0.125
277.24 -0.135
277.24 -0.11
277.24 -0.135
277.25 -0.19
277.25 -0.195
277.26 -0.205
277.26 -0.225
277.26 -0.23
277.27 -0.225
277.27 -0.235
277.28 -0.255
277.28 -0.26
277.28 -0.28
277.29 -0.31
277.29 -0.33
277.3 -0.36
277.3 -0.37
277.3 -0.4
277.31 -0.39
277.31 -0.38
277.32 -0.4
277.32 -0.405
277.32 -0.415
277.33 -0.42
277.33 -0.435
277.34 -0.4
277.34 -0.39
277.34 -0.385
277.35 -0.385
277.35 -0.385
277.36 -0.415
277.36 -0.4
277.36 -0.405
277.37 -0.42
277.37 -0.4
277.38 -0.385
277.38 -0.37
277.38 -0.38
277.39 -0.38
277.39 -0.385
277.4 -0.375
277.4 -0.36
277.4 -0.34
277.41 -0.285
277.41 -0.205
277.42 -0.09
277.42 0.085
277.42 0.265
277.43 0.43
277.43 0.53
277.44 0.575
277.44 0.615
277.44 0.595
277.45 0.59
277.45 0.515
277.46 0.47
277.46 0.445
277.46 0.445
277.47 0.475
277.47 0.475
277.48 0.475
277.48 0.455
277.48 0.39
277.49 0.275
277.49 0.2
277.5 0.21
277.5 0.325
277.5 0.45
277.51 0.515
277.51 0.42
277.52 0.24
277.52 0.025
277.52 -0.155
277.53 -0.265
277.53 -0.285
277.54 -0.29
277.54 -0.325
277.54 -0.37
277.55 -0.41
277.55 -0.47
277.56 -0.455
277.56 -0.46
277.56 -0.445
277.57 -0.44
277.57 -0.435
277.58 -0.425
277.58 -0.42
277.58 -0.44
277.59 -0.445
277.59 -0.455
277.6 -0.455
277.6 -0.435
277.6 -0.435
277.61 -0.425
277.61 -0.415
277.62 -0.405
277.62 -0.435
277.62 -0.435
277.63 -0.475
277.63 -0.47
277.64 -0.465
277.64 -0.44
277.64 -0.45
277.65 -0.47
277.65 -0.475
277.66 -0.495
277.66 -0.52
277.66 -0.515
277.67 -0.505
277.67 -0.51
277.68 -0.52
277.68 -0.515
277.68 -0.52
277.69 -0.555
277.69 -0.555
277.7 -0.565
277.7 -0.57
277.7 -0.59
277.71 -0.57
277.71 -0.57
277.72 -0.57
277.72 -0.565
277.72 -0.555
277.73 -0.58
277.73 -0.585
277.74 -0.61
277.74 -0.62
277.74 -0.61
277.75 -0.605
277.75 -0.585
277.76 -0.605
277.76 -0.59
277.76 -0.58
277.77 -0.59
277.77 -0.595
277.78 -0.595
277.78 -0.58
277.78 -0.545
277.79 -0.535
277.79 -0.535
277.8 -0.55
277.8 -0.535
277.8 -0.535
277.81 -0.505
277.81 -0.49
277.82 -0.465
277.82 -0.445
277.82 -0.42
277.83 -0.41
277.83 -0.39
277.84 -0.395
277.84 -0.39
277.84 -0.37
277.85 -0.345
277.85 -0.345
277.86 -0.32
277.86 -0.315
277.86 -0.305
277.87 -0.31
277.87 -0.315
277.88 -0.32
277.88 -0.325
277.88 -0.315
277.89 -0.34
277.89 -0.345
277.9 -0.34
277.9 -0.32
277.9 -0.34
277.91 -0.345
277.91 -0.355
277.92 -0.35
277.92 -0.355
277.92 -0.37
277.93 -0.38
277.93 -0.36
277.94 -0.37
277.94 -0.38
277.94 -0.39
277.95 -0.385
277.95 -0.41
277.96 -0.41
277.96 -0.405
277.96 -0.39
277.97 -0.395
277.97 -0.415
277.98 -0.395
277.98 -0.42
277.98 -0.425
277.99 -0.42
277.99 -0.415
278 -0.41
278 -0.425
278 -0.435
278.01 -0.43
278.01 -0.41
278.02 -0.41
278.02 -0.435
278.02 -0.43
278.03 -0.435
278.03 -0.41
278.04 -0.425
278.04 -0.415
278.04 -0.415
278.05 -0.415
278.05 -0.43
278.06 -0.425
278.06 -0.43
278.06 -0.42
278.07 -0.41
278.07 -0.415
278.08 -0.405
278.08 -0.37
278.08 -0.38
278.09 -0.38
278.09 -0.415
278.1 -0.41
278.1 -0.39
278.1 -0.375
278.11 -0.35
278.11 -0.33
278.12 -0.3
278.12 -0.295
278.12 -0.295
278.13 -0.275
278.13 -0.27
278.14 -0.25
278.14 -0.23
278.14 -0.215
278.15 -0.195
278.15 -0.155
278.16 -0.155
278.16 -0.185
278.16 -0.2
278.17 -0.23
278.17 -0.24
278.18 -0.235
278.18 -0.25
278.18 -0.285
278.19 -0.295
278.19 -0.295
278.2 -0.29
278.2 -0.315
278.2 -0.345
278.21 -0.375
278.21 -0.39
278.22 -0.415
278.22 -0.425
278.22 -0.44
278.23 -0.44
278.23 -0.45
278.24 -0.46
278.24 -0.47
278.24 -0.485
278.25 -0.485
278.25 -0.465
278.26 -0.47
278.26 -0.45
278.26 -0.445
278.27 -0.47
278.27 -0.43
278.28 -0.46
278.28 -0.45
278.28 -0.47
278.29 -0.45
278.29 -0.45
278.3 -0.43
278.3 -0.43
278.3 -0.43
278.31 -0.42
278.31 -0.415
278.32 -0.405
278.32 -0.385
278.32 -0.32
278.33 -0.225
278.33 -0.12
278.34 0.045
278.34 0.25
278.34 0.435
278.35 0.59
278.35 0.675
278.36 0.705
278.36 0.72
278.36 0.705
278.37 0.62
278.37 0.525
278.38 0.47
278.38 0.43
278.38 0.42
278.39 0.42
278.39 0.44
278.4 0.415
278.4 0.37
278.4 0.235
278.41 0.15
278.41 0.135
278.42 0.235
278.42 0.39
278.42 0.43
278.43 0.33
278.43 0.155
278.44 -0.08
278.44 -0.245
278.44 -0.31
278.45 -0.32
278.45 -0.325
278.46 -0.37
278.46 -0.425
278.46 -0.505
278.47 -0.51
278.47 -0.515
278.48 -0.505
278.48 -0.505
278.48 -0.47
278.49 -0.485
278.49 -0.485
278.5 -0.5
278.5 -0.495
278.5 -0.5
278.51 -0.485
278.51 -0.445
278.52 -0.46
278.52 -0.46
278.52 -0.465
278.53 -0.48
278.53 -0.5
278.54 -0.515
278.54 -0.53
278.54 -0.53
278.55 -0.525
278.55 -0.505
278.56 -0.51
278.56 -0.52
278.56 -0.52
278.57 -0.55
278.57 -0.56
278.58 -0.565
278.58 -0.545
278.58 -0.56
278.59 -0.56
278.59 -0.555
278.6 -0.56
278.6 -0.58
278.6 -0.575
278.61 -0.575
278.61 -0.615
278.62 -0.62
278.62 -0.615
278.62 -0.635
278.63 -0.63
278.63 -0.63
278.64 -0.63
278.64 -0.65
278.64 -0.655
278.65 -0.645
278.65 -0.64
278.66 -0.645
278.66 -0.635
278.66 -0.61
278.67 -0.6
278.67 -0.615
278.68 -0.615
278.68 -0.635
278.68 -0.62
278.69 -0.625
278.69 -0.61
278.7 -0.615
278.7 -0.595
278.7 -0.595
278.71 -0.58
278.71 -0.57
278.72 -0.56
278.72 -0.565
278.72 -0.545
278.73 -0.545
278.73 -0.495
278.74 -0.48
278.74 -0.42
278.74 -0.445
278.75 -0.445
278.75 -0.435
278.76 -0.415
278.76 -0.395
278.76 -0.4
278.77 -0.375
278.77 -0.355
278.78 -0.355
278.78 -0.36
278.78 -0.355
278.79 -0.36
278.79 -0.38
278.8 -0.35
278.8 -0.335
278.8 -0.315
278.81 -0.355
278.81 -0.38
278.82 -0.365
278.82 -0.39
278.82 -0.415
278.83 -0.415
278.83 -0.415
278.84 -0.4
278.84 -0.39
278.84 -0.375
278.85 -0.385
278.85 -0.415
278.86 -0.41
278.86 -0.415
278.86 -0.42
278.87 -0.445
278.87 -0.425
278.88 -0.39
278.88 -0.395
278.88 -0.39
278.89 -0.4
278.89 -0.375
278.9 -0.41
278.9 -0.4
278.9 -0.405
278.91 -0.41
278.91 -0.4
278.92 -0.405
278.92 -0.4
278.92 -0.395
278.93 -0.405
278.93 -0.42
278.94 -0.41
278.94 -0.4
278.94 -0.375
278.95 -0.355
278.95 -0.365
278.96 -0.375
278.96 -0.375
278.96 -0.365
278.97 -0.4
278.97 -0.39
278.98 -0.375
278.98 -0.37
278.98 -0.345
278.99 -0.36
278.99 -0.335
279 -0.32
279 -0.325
279 -0.335
279.01 -0.335
279.01 -0.325
279.02 -0.29
279.02 -0.265
279.02 -0.235
279.03 -0.205
279.03 -0.205
279.04 -0.195
279.04 -0.205
279.04 -0.175
279.05 -0.16
279.05 -0.13
279.06 -0.11
279.06 -0.105
279.06 -0.11
279.07 -0.13
279.07 -0.145
279.08 -0.195
279.08 -0.205
279.08 -0.195
279.09 -0.215
279.09 -0.215
279.1 -0.22
279.1 -0.235
279.1 -0.25
279.11 -0.275
279.11 -0.305
279.12 -0.325
279.12 -0.37
279.12 -0.395
279.13 -0.41
279.13 -0.395
279.14 -0.405
279.14 -0.4
279.14 -0.41
279.15 -0.41
279.15 -0.425
279.16 -0.42
279.16 -0.415
279.16 -0.395
279.17 -0.385
279.17 -0.38
279.18 -0.38
279.18 -0.38
279.18 -0.405
279.19 -0.4
279.19 -0.41
279.2 -0.4
279.2 -0.4
279.2 -0.385
279.21 -0.37
279.21 -0.365
279.22 -0.35
279.22 -0.34
279.22 -0.305
279.23 -0.25
279.23 -0.175
279.24 -0.045
279.24 0.135
279.24 0.355
279.25 0.545
279.25 0.7
279.26 0.795
279.26 0.87
279.26 0.87
279.27 0.825
279.27 0.755
279.28 0.64
279.28 0.555
279.28 0.545
279.29 0.555
279.29 0.565
279.3 0.56
279.3 0.475
279.3 0.37
279.31 0.265
279.31 0.19
279.32 0.23
279.32 0.385
279.32 0.495
279.33 0.48
279.33 0.33
279.34 0.105
279.34 -0.12
279.34 -0.255
279.35 -0.305
279.35 -0.315
279.36 -0.32
279.36 -0.37
279.36 -0.435
279.37 -0.485
279.37 -0.505
279.38 -0.505
279.38 -0.48
279.38 -0.455
279.39 -0.46
279.39 -0.46
279.4 -0.47
279.4 -0.47
279.4 -0.48
279.41 -0.48
279.41 -0.475
279.42 -0.47
279.42 -0.485
279.42 -0.48
279.43 -0.48
279.43 -0.475
279.44 -0.485
279.44 -0.495
279.44 -0.5
279.45 -0.485
279.45 -0.5
279.46 -0.51
279.46 -0.515
279.46 -0.5
279.47 -0.52
279.47 -0.53
279.48 -0.52
279.48 -0.56
279.48 -0.57
279.49 -0.58
279.49 -0.57
279.5 -0.565
279.5 -0.54
279.5 -0.57
279.51 -0.57
279.51 -0.595
279.52 -0.58
279.52 -0.6
279.52 -0.61
279.53 -0.62
279.53 -0.63
279.54 -0.625
279.54 -0.635
279.54 -0.635
279.55 -0.655
279.55 -0.645
279.56 -0.635
279.56 -0.64
279.56 -0.64
279.57 -0.64
279.57 -0.625
279.58 -0.655
279.58 -0.64
279.58 -0.64
279.59 -0.64
279.59 -0.64
279.6 -0.625
279.6 -0.63
279.6 -0.605
279.61 -0.585
279.61 -0.575
279.62 -0.585
279.62 -0.575
279.62 -0.55
279.63 -0.535
279.63 -0.525
279.64 -0.52
279.64 -0.49
279.64 -0.475
279.65 -0.44
279.65 -0.41
279.66 -0.425
279.66 -0.415
279.66 -0.39
279.67 -0.38
279.67 -0.365
279.68 -0.35
279.68 -0.35
279.68 -0.34
279.69 -0.345
279.69 -0.355
279.7 -0.36
279.7 -0.34
279.7 -0.36
279.71 -0.35
279.71 -0.33
279.72 -0.345
279.72 -0.33
279.72 -0.34
279.73 -0.355
279.73 -0.355
279.74 -0.38
279.74 -0.375
279.74 -0.39
279.75 -0.385
279.75 -0.375
279.76 -0.365
279.76 -0.385
279.76 -0.405
279.77 -0.4
279.77 -0.415
279.78 -0.41
279.78 -0.425
279.78 -0.415
279.79 -0.41
279.79 -0.39
279.8 -0.415
279.8 -0.44
279.8 -0.455
279.81 -0.425
279.81 -0.445
279.82 -0.43
279.82 -0.41
279.82 -0.395
279.83 -0.4
279.83 -0.43
279.84 -0.435
279.84 -0.425
279.84 -0.43
279.85 -0.415
279.85 -0.42
279.86 -0.41
279.86 -0.4
279.86 -0.415
279.87 -0.405
279.87 -0.4
279.88 -0.415
279.88 -0.415
279.88 -0.43
279.89 -0.415
279.89 -0.415
279.9 -0.395
279.9 -0.385
279.9 -0.385
279.91 -0.395
279.91 -0.405
279.92 -0.415
279.92 -0.4
279.92 -0.38
279.93 -0.345
279.93 -0.305
279.94 -0.275
279.94 -0.28
279.94 -0.26
279.95 -0.25
279.95 -0.23
279.96 -0.2
279.96 -0.185
279.96 -0.18
279.97 -0.11
279.97 -0.115
279.98 -0.1
279.98 -0.12
279.98 -0.115
279.99 -0.165
279.99 -0.18
280 -0.195
280 -0.2
280 -0.22
280.01 -0.225
280.01 -0.215
280.02 -0.245
280.02 -0.24
280.02 -0.27
280.03 -0.32
280.03 -0.34
280.04 -0.35
280.04 -0.345
280.04 -0.38
280.05 -0.4
280.05 -0.395
280.06 -0.41
280.06 -0.41
280.06 -0.405
280.07 -0.42
280.07 -0.445
280.08 -0.41
280.08 -0.395
280.08 -0.405
280.09 -0.405
280.09 -0.415
280.1 -0.42
280.1 -0.42
280.1 -0.41
280.11 -0.405
280.11 -0.375
280.12 -0.36
280.12 -0.39
280.12 -0.385
280.13 -0.41
280.13 -0.385
280.14 -0.365
280.14 -0.36
280.14 -0.335
280.15 -0.285
280.15 -0.195
280.16 -0.07
280.16 0.08
280.16 0.255
280.17 0.405
280.17 0.55
280.18 0.635
280.18 0.67
280.18 0.7
280.19 0.675
280.19 0.63
280.2 0.55
280.2 0.485
280.2 0.47
280.21 0.475
280.21 0.485
280.22 0.53
280.22 0.515
280.22 0.445
280.23 0.35
280.23 0.26
280.24 0.225
280.24 0.325
280.24 0.46
280.25 0.485
280.25 0.425
280.26 0.2
280.26 -0.01
280.26 -0.19
280.27 -0.28
280.27 -0.295
280.28 -0.3
280.28 -0.335
280.28 -0.415
280.29 -0.465
280.29 -0.495
280.3 -0.475
280.3 -0.47
280.3 -0.46
280.31 -0.46
280.31 -0.445
280.32 -0.46
280.32 -0.47
280.32 -0.455
280.33 -0.475
280.33 -0.48
280.34 -0.475
280.34 -0.47
280.34 -0.465
280.35 -0.465
280.35 -0.47
280.36 -0.485
280.36 -0.485
280.36 -0.47
280.37 -0.48
280.37 -0.47
280.38 -0.455
280.38 -0.485
280.38 -0.5
280.39 -0.5
280.39 -0.515
280.4 -0.515
280.4 -0.53
280.4 -0.54
280.41 -0.55
280.41 -0.54
280.42 -0.56
280.42 -0.565
280.42 -0.59
280.43 -0.61
280.43 -0.625
280.44 -0.63
280.44 -0.62
280.44 -0.605
280.45 -0.63
280.45 -0.64
280.46 -0.635
280.46 -0.66
280.46 -0.645
280.47 -0.645
280.47 -0.66
280.48 -0.655
280.48 -0.66
280.48 -0.645
280.49 -0.655
280.49 -0.645
280.5 -0.67
280.5 -0.66
280.5 -0.65
280.51 -0.64
280.51 -0.66
280.52 -0.645
280.52 -0.62
280.52 -0.615
280.53 -0.61
280.53 -0.605
280.54 -0.615
280.54 -0.61
280.54 -0.595
280.55 -0.565
280.55 -0.555
280.56 -0.525
280.56 -0.485
280.56 -0.48
280.57 -0.46
280.57 -0.455
280.58 -0.45
280.58 -0.42
280.58 -0.415
280.59 -0.4
280.59 -0.39
280.6 -0.385
280.6 -0.35
280.6 -0.37
280.61 -0.365
280.61 -0.385
280.62 -0.38
280.62 -0.385
280.62 -0.375
280.63 -0.375
280.63 -0.365
280.64 -0.395
280.64 -0.4
280.64 -0.41
280.65 -0.42
280.65 -0.415
280.66 -0.42
280.66 -0.44
280.66 -0.435
280.67 -0.435
280.67 -0.44
280.68 -0.43
280.68 -0.46
280.68 -0.455
280.69 -0.465
280.69 -0.46
280.7 -0.475
280.7 -0.46
280.7 -0.455
280.71 -0.455
280.71 -0.47
280.72 -0.495
280.72 -0.505
280.72 -0.52
280.73 -0.52
280.73 -0.495
280.74 -0.485
280.74 -0.5
280.74 -0.5
280.75 -0.47
280.75 -0.495
280.76 -0.51
280.76 -0.51
280.76 -0.51
280.77 -0.48
280.77 -0.465
280.78 -0.48
280.78 -0.49
280.78 -0.485
280.79 -0.49
280.79 -0.495
280.8 -0.505
280.8 -0.485
280.8 -0.465
280.81 -0.47
280.81 -0.47
280.82 -0.49
280.82 -0.51
280.82 -0.5
280.83 -0.48
280.83 -0.505
280.84 -0.485
280.84 -0.48
280.84 -0.45
280.85 -0.44
280.85 -0.43
280.86 -0.435
280.86 -0.415
280.86 -0.365
280.87 -0.375
280.87 -0.365
280.88 -0.33
280.88 -0.305
280.88 -0.275
280.89 -0.28
280.89 -0.265
280.9 -0.255
280.9 -0.21
280.9 -0.215
280.91 -0.23
280.91 -0.245
280.92 -0.26
280.92 -0.26
280.92 -0.27
280.93 -0.285
280.93 -0.28
280.94 -0.345
280.94 -0.32
280.94 -0.335
280.95 -0.365
280.95 -0.37
280.96 -0.395
280.96 -0.4
280.96 -0.43
280.97 -0.44
280.97 -0.505
280.98 -0.515
280.98 -0.51
280.98 -0.515
280.99 -0.48
280.99 -0.48
281 -0.505
281 -0.525
281 -0.515
281.01 -0.515
281.01 -0.51
281.02 -0.495
281.02 -0.52
281.02 -0.495
281.03 -0.475
281.03 -0.485
281.04 -0.495
281.04 -0.495
281.04 -0.5
281.05 -0.485
281.05 -0.49
281.06 -0.495
281.06 -0.46
281.06 -0.445
281.07 -0.415
281.07 -0.37
281.08 -0.32
281.08 -0.235
281.08 -0.08
281.09 0.095
281.09 0.33
281.1 0.5
281.1 0.625
281.1 0.685
281.11 0.725
281.11 0.695
281.12 0.62
281.12 0.54
281.12 0.455
281.13 0.375
281.13 0.38
281.14 0.385
281.14 0.42
281.14 0.41
281.15 0.35
281.15 0.25
281.16 0.14
281.16 0.085
281.16 0.155
281.17 0.315
281.17 0.405
281.18 0.385
281.18 0.21
281.18 -0.02
281.19 -0.205
281.19 -0.335
281.2 -0.39
281.2 -0.405
281.2 -0.43
281.21 -0.45
281.21 -0.51
281.22 -0.52
281.22 -0.55
281.22 -0.545
281.23 -0.575
281.23 -0.555
281.24 -0.575
281.24 -0.575
281.24 -0.55
281.25 -0.55
281.25 -0.535
281.26 -0.535
281.26 -0.54
281.26 -0.555
281.27 -0.535
281.27 -0.535
281.28 -0.54
281.28 -0.53
281.28 -0.545
281.29 -0.56
281.29 -0.58
281.3 -0.57
281.3 -0.58
281.3 -0.585
281.31 -0.585
281.31 -0.62
281.32 -0.6
281.32 -0.615
281.32 -0.605
281.33 -0.61
281.33 -0.625
281.34 -0.65
281.34 -0.65
281.34 -0.68
281.35 -0.665
281.35 -0.685
281.36 -0.665
281.36 -0.67
281.36 -0.675
281.37 -0.68
281.37 -0.705
281.38 -0.715
281.38 -0.725
281.38 -0.705
281.39 -0.725
281.39 -0.72
281.4 -0.735
281.4 -0.73
281.4 -0.73
281.41 -0.735
281.41 -0.75
281.42 -0.745
281.42 -0.75
281.42 -0.74
281.43 -0.725
281.43 -0.725
281.44 -0.72
281.44 -0.69
281.44 -0.7
281.45 -0.705
281.45 -0.705
281.46 -0.71
281.46 -0.69
281.46 -0.665
281.47 -0.615
281.47 -0.61
281.48 -0.595
281.48 -0.605
281.48 -0.61
281.49 -0.605
281.49 -0.565
281.5 -0.54
281.5 -0.52
281.5 -0.495
281.51 -0.48
281.51 -0.48
281.52 -0.47
281.52 -0.465
281.52 -0.475
281.53 -0.475
281.53 -0.46
281.54 -0.45
281.54 -0.45
281.54 -0.435
281.55 -0.43
281.55 -0.445
281.56 -0.46
281.56 -0.47
281.56 -0.47
281.57 -0.47
281.57 -0.46
281.58 -0.475
281.58 -0.455
281.58 -0.475
281.59 -0.495
281.59 -0.5
281.6 -0.515
281.6 -0.515
281.6 -0.52
281.61 -0.52
281.61 -0.51
281.62 -0.5
281.62 -0.49
281.62 -0.525
281.63 -0.53
281.63 -0.545
281.64 -0.545
281.64 -0.53
281.64 -0.51
281.65 -0.505
281.65 -0.52
281.66 -0.53
281.66 -0.525
281.66 -0.53
281.67 -0.525
281.67 -0.515
281.68 -0.53
281.68 -0.54
281.68 -0.54
281.69 -0.545
281.69 -0.54
281.7 -0.505
281.7 -0.52
281.7 -0.505
281.71 -0.515
281.71 -0.5
281.72 -0.51
281.72 -0.465
281.72 -0.475
281.73 -0.5
281.73 -0.515
281.74 -0.525
281.74 -0.505
281.74 -0.53
281.75 -0.51
281.75 -0.5
281.76 -0.49
281.76 -0.465
281.76 -0.46
281.77 -0.46
281.77 -0.45
281.78 -0.4
281.78 -0.375
281.78 -0.35
281.79 -0.335
281.79 -0.35
281.8 -0.33
281.8 -0.315
281.8 -0.3
281.81 -0.275
281.81 -0.285
281.82 -0.24
281.82 -0.245
281.82 -0.265
281.83 -0.295
281.83 -0.32
281.84 -0.345
281.84 -0.34
281.84 -0.345
281.85 -0.385
281.85 -0.415
281.86 -0.425
281.86 -0.415
281.86 -0.415
281.87 -0.45
281.87 -0.465
281.88 -0.5
281.88 -0.52
281.88 -0.55
281.89 -0.54
281.89 -0.545
281.9 -0.535
281.9 -0.515
281.9 -0.53
281.91 -0.53
281.91 -0.54
281.92 -0.555
281.92 -0.535
281.92 -0.525
281.93 -0.53
281.93 -0.53
281.94 -0.53
281.94 -0.51
281.94 -0.505
281.95 -0.54
281.95 -0.55
281.96 -0.54
281.96 -0.53
281.96 -0.495
281.97 -0.48
281.97 -0.48
281.98 -0.455
281.98 -0.41
281.98 -0.38
281.99 -0.32
281.99 -0.2
282 -0.065
282 0.135
282 0.375
282.01 0.585
282.01 0.715
282.02 0.8
282.02 0.855
282.02 0.855
282.03 0.8
282.03 0.71
282.04 0.61
282.04 0.535
282.04 0.53
282.05 0.53
282.05 0.52
282.06 0.515
282.06 0.41
282.06 0.315
282.07 0.19
282.07 0.17
282.08 0.245
282.08 0.39
282.08 0.495
282.09 0.45
282.09 0.24
282.1 -0.03
282.1 -0.22
282.1 -0.335
282.11 -0.405
282.11 -0.375
282.12 -0.41
282.12 -0.455
282.12 -0.525
282.13 -0.565
282.13 -0.57
282.14 -0.56
282.14 -0.555
282.14 -0.575
282.15 -0.565
282.15 -0.53
282.16 -0.545
282.16 -0.52
282.16 -0.53
282.17 -0.54
282.17 -0.55
282.18 -0.56
282.18 -0.585
282.18 -0.565
282.19 -0.55
282.19 -0.555
282.2 -0.555
282.2 -0.57
282.2 -0.545
282.21 -0.565
282.21 -0.58
282.22 -0.595
282.22 -0.61
282.22 -0.6
282.23 -0.6
282.23 -0.605
282.24 -0.595
282.24 -0.605
282.24 -0.625
282.25 -0.655
282.25 -0.665
282.26 -0.64
282.26 -0.635
282.26 -0.635
282.27 -0.63
282.27 -0.64
282.28 -0.67
282.28 -0.705
282.28 -0.715
282.29 -0.705
282.29 -0.72
282.3 -0.72
282.3 -0.69
282.3 -0.7
282.31 -0.68
282.31 -0.7
282.32 -0.7
282.32 -0.735
282.32 -0.73
282.33 -0.71
282.33 -0.72
282.34 -0.7
282.34 -0.695
282.34 -0.71
282.35 -0.715
282.35 -0.715
282.36 -0.7
282.36 -0.68
282.36 -0.695
282.37 -0.665
282.37 -0.64
282.38 -0.64
282.38 -0.62
282.38 -0.62
282.39 -0.625
282.39 -0.605
282.4 -0.56
282.4 -0.54
282.4 -0.52
282.41 -0.505
282.41 -0.48
282.42 -0.45
282.42 -0.44
282.42 -0.45
282.43 -0.44
282.43 -0.435
282.44 -0.425
282.44 -0.41
282.44 -0.405
282.45 -0.37
282.45 -0.385
282.46 -0.385
282.46 -0.4
282.46 -0.44
282.47 -0.45
282.47 -0.44
282.48 -0.44
282.48 -0.445
282.48 -0.43
282.49 -0.445
282.49 -0.46
282.5 -0.465
282.5 -0.465
282.5 -0.47
282.51 -0.48
282.51 -0.445
282.52 -0.465
282.52 -0.455
282.52 -0.455
282.53 -0.46
282.53 -0.45
282.54 -0.48
282.54 -0.49
282.54 -0.49
282.55 -0.505
282.55 -0.495
282.56 -0.475
282.56 -0.455
282.56 -0.455
282.57 -0.475
282.57 -0.495
282.58 -0.495
282.58 -0.51
282.58 -0.515
282.59 -0.5
282.59 -0.475
282.6 -0.475
282.6 -0.475
282.6 -0.46
282.61 -0.47
282.61 -0.475
282.62 -0.485
282.62 -0.475
282.62 -0.48
282.63 -0.45
282.63 -0.45
282.64 -0.455
282.64 -0.455
282.64 -0.475
282.65 -0.47
282.65 -0.465
282.66 -0.445
282.66 -0.45
282.66 -0.425
282.67 -0.435
282.67 -0.425
282.68 -0.44
282.68 -0.42
282.68 -0.43
282.69 -0.4
282.69 -0.4
282.7 -0.355
282.7 -0.32
282.7 -0.29
282.71 -0.3
282.71 -0.265
282.72 -0.265
282.72 -0.24
282.72 -0.245
282.73 -0.215
282.73 -0.175
282.74 -0.17
282.74 -0.19
282.74 -0.195
282.75 -0.245
282.75 -0.265
282.76 -0.275
282.76 -0.275
282.76 -0.3
282.77 -0.31
282.77 -0.32
282.78 -0.335
282.78 -0.35
282.78 -0.375
282.79 -0.375
282.79 -0.405
282.8 -0.435
282.8 -0.46
282.8 -0.465
282.81 -0.47
282.81 -0.465
282.82 -0.5
282.82 -0.52
282.82 -0.52
282.83 -0.515
282.83 -0.515
282.84 -0.51
282.84 -0.495
282.84 -0.5
282.85 -0.47
282.85 -0.48
282.86 -0.485
282.86 -0.505
282.86 -0.505
282.87 -0.515
282.87 -0.495
282.88 -0.48
282.88 -0.48
282.88 -0.47
282.89 -0.45
282.89 -0.46
282.9 -0.435
282.9 -0.41
282.9 -0.355
282.91 -0.295
282.91 -0.195
282.92 -0.08
282.92 0.135
282.92 0.345
282.93 0.525
282.93 0.62
282.94 0.64
282.94 0.68
282.94 0.665
282.95 0.61
282.95 0.55
282.96 0.495
282.96 0.475
282.96 0.465
282.97 0.485
282.97 0.5
282.98 0.475
282.98 0.44
282.98 0.355
282.99 0.255
282.99 0.205
283 0.28
283 0.41
283 0.515
283.01 0.51
283.01 0.365
283.02 0.13
283.02 -0.11
283.02 -0.265
283.03 -0.33
283.03 -0.33
283.04 -0.32
283.04 -0.37
283.04 -0.43
283.05 -0.505
283.05 -0.525
283.06 -0.52
283.06 -0.51
283.06 -0.51
283.07 -0.53
283.07 -0.525
283.08 -0.52
283.08 -0.515
283.08 -0.515
283.09 -0.525
283.09 -0.5
283.1 -0.515
283.1 -0.495
283.1 -0.485
283.11 -0.475
283.11 -0.505
283.12 -0.505
283.12 -0.52
283.12 -0.53
283.13 -0.535
283.13 -0.54
283.14 -0.52
283.14 -0.545
283.14 -0.545
283.15 -0.545
283.15 -0.555
283.16 -0.575
283.16 -0.58
283.16 -0.605
283.17 -0.61
283.17 -0.62
283.18 -0.59
283.18 -0.555
283.18 -0.605
283.19 -0.625
283.19 -0.66
283.2 -0.68
283.2 -0.675
283.2 -0.69
283.21 -0.675
283.21 -0.66
283.22 -0.665
283.22 -0.67
283.22 -0.685
283.23 -0.7
283.23 -0.705
283.24 -0.71
283.24 -0.695
283.24 -0.685
283.25 -0.69
283.25 -0.675
283.26 -0.665
283.26 -0.685
283.26 -0.69
283.27 -0.685
283.27 -0.68
283.28 -0.67
283.28 -0.655
283.28 -0.64
283.29 -0.62
283.29 -0.615
283.3 -0.6
283.3 -0.59
283.3 -0.585
283.31 -0.575
283.31 -0.595
283.32 -0.56
283.32 -0.545
283.32 -0.51
283.33 -0.495
283.33 -0.47
283.34 -0.455
283.34 -0.455
283.34 -0.445
283.35 -0.44
283.35 -0.435
283.36 -0.405
283.36 -0.385
283.36 -0.39
283.37 -0.395
283.37 -0.395
283.38 -0.405
283.38 -0.415
283.38 -0.415
283.39 -0.42
283.39 -0.415
283.4 -0.41
283.4 -0.395
283.4 -0.425
283.41 -0.415
283.41 -0.42
283.42 -0.44
283.42 -0.475
283.42 -0.455
283.43 -0.46
283.43 -0.46
283.44 -0.475
283.44 -0.48
283.44 -0.48
283.45 -0.5
283.45 -0.48
283.46 -0.48
283.46 -0.505
283.46 -0.49
283.47 -0.49
283.47 -0.5
283.48 -0.495
283.48 -0.485
283.48 -0.505
283.49 -0.52
283.49 -0.535
283.5 -0.52
283.5 -0.52
283.5 -0.51
283.51 -0.525
283.51 -0.52
283.52 -0.505
283.52 -0.51
283.52 -0.515
283.53 -0.515
283.53 -0.52
283.54 -0.5
283.54 -0.495
283.54 -0.48
283.55 -0.485
283.55 -0.495
283.56 -0.485
283.56 -0.48
283.56 -0.515
283.57 -0.515
283.57 -0.5
283.58 -0.51
283.58 -0.505
283.58 -0.485
283.59 -0.51
283.59 -0.525
283.6 -0.52
283.6 -0.51
283.6 -0.515
283.61 -0.51
283.61 -0.48
283.62 -0.48
283.62 -0.465
283.62 -0.46
283.63 -0.43
283.63 -0.43
283.64 -0.395
283.64 -0.38
283.64 -0.35
283.65 -0.33
283.65 -0.315
283.66 -0.305
283.66 -0.28
283.66 -0.28
283.67 -0.255
283.67 -0.265
283.68 -0.29
283.68 -0.305
283.68 -0.31
283.69 -0.33
283.69 -0.33
283.7 -0.35
283.7 -0.395
283.7 -0.405
283.71 -0.42
283.71 -0.44
283.72 -0.44
283.72 -0.445
283.72 -0.475
283.73 -0.495
283.73 -0.51
283.74 -0.55
283.74 -0.59
283.74 -0.59
283.75 -0.58
283.75 -0.585
283.76 -0.585
283.76 -0.585
283.76 -0.585
283.77 -0.57
283.77 -0.58
283.78 -0.59
283.78 -0.585
283.78 -0.585
283.79 -0.565
283.79 -0.58
283.8 -0.575
283.8 -0.58
283.8 -0.58
283.81 -0.575
283.81 -0.565
283.82 -0.585
283.82 -0.565
283.82 -0.55
283.83 -0.51
283.83 -0.5
283.84 -0.45
283.84 -0.4
283.84 -0.325
283.85 -0.19
283.85 0
283.86 0.21
283.86 0.37
283.86 0.515
283.87 0.58
283.87 0.595
283.88 0.595
283.88 0.54
283.88 0.435
283.89 0.33
283.89 0.305
283.9 0.295
283.9 0.335
283.9 0.365
283.91 0.36
283.91 0.275
283.92 0.165
283.92 0.075
283.92 0.025
283.93 0.11
283.93 0.26
283.94 0.335
283.94 0.31
283.94 0.14
283.95 -0.115
283.95 -0.31
283.96 -0.445
283.96 -0.465
283.96 -0.46
283.97 -0.5
283.97 -0.55
283.98 -0.605
283.98 -0.625
283.98 -0.615
283.99 -0.59
283.99 -0.605
284 -0.595
284 -0.605
284 -0.62
284.01 -0.64
284.01 -0.595
284.02 -0.61
284.02 -0.61
284.02 -0.6
284.03 -0.605
284.03 -0.605
284.04 -0.625
284.04 -0.61
284.04 -0.61
284.05 -0.62
284.05 -0.615
284.06 -0.625
284.06 -0.62
284.06 -0.63
284.07 -0.64
284.07 -0.64
284.08 -0.665
284.08 -0.67
284.08 -0.655
284.09 -0.655
284.09 -0.64
284.1 -0.675
284.1 -0.68
284.1 -0.7
284.11 -0.715
284.11 -0.715
284.12 -0.745
284.12 -0.745
284.12 -0.735
284.13 -0.745
284.13 -0.745
284.14 -0.775
284.14 -0.785
284.14 -0.76
284.15 -0.77
284.15 -0.765
284.16 -0.785
284.16 -0.77
284.16 -0.765
284.17 -0.79
284.17 -0.775
284.18 -0.755
284.18 -0.78
284.18 -0.77
284.19 -0.76
284.19 -0.755
284.2 -0.755
284.2 -0.755
284.2 -0.745
284.21 -0.74
284.21 -0.745
284.22 -0.74
284.22 -0.725
284.22 -0.715
284.23 -0.685
284.23 -0.67
284.24 -0.645
284.24 -0.65
284.24 -0.625
284.25 -0.64
284.25 -0.62
284.26 -0.6
284.26 -0.57
284.26 -0.545
284.27 -0.515
284.27 -0.5
284.28 -0.495
284.28 -0.48
284.28 -0.495
284.29 -0.5
284.29 -0.49
284.3 -0.49
284.3 -0.485
284.3 -0.475
284.31 -0.465
284.31 -0.46
284.32 -0.48
284.32 -0.51
284.32 -0.495
284.33 -0.515
284.33 -0.505
284.34 -0.51
284.34 -0.51
284.34 -0.51
284.35 -0.515
284.35 -0.545
284.36 -0.58
284.36 -0.565
284.36 -0.58
284.37 -0.615
284.37 -0.65
284.38 -0.755
284.38 -0.875
284.38 -0.98
284.39 -1.035
284.39 -1.135
284.4 -1.25
284.4 -1.345
284.4 -1.465
284.41 -1.59
284.41 -1.71
284.42 -1.765
284.42 -1.82
284.42 -1.88
284.43 -1.945
284.43 -2.05
284.44 -2.2
284.44 -2.33
284.44 -2.46
284.45 -2.515
284.45 -2.58
284.46 -2.665
284.46 -2.755
284.46 -2.82
284.47 -2.89
284.47 -2.97
284.48 -3.06
284.48 -3.125
284.48 -3.17
284.49 -3.185
284.49 -3.215
284.5 -3.235
284.5 -3.2
284.5 -3.14
284.51 -3.035
284.51 -2.91
284.52 -2.77
284.52 -2.56
284.52 -2.36
284.53 -2.2
284.53 -2.075
284.54 -1.945
284.54 -1.735
284.54 -1.51
284.55 -1.26
284.55 -0.98
284.56 -0.665
284.56 -0.38
284.56 -0.215
284.57 -0.08
284.57 0.025
284.58 0.135
284.58 0.215
284.58 0.295
284.59 0.32
284.59 0.325
284.6 0.345
284.6 0.375
284.6 0.395
284.61 0.42
284.61 0.455
284.62 0.465
284.62 0.49
284.62 0.515
284.63 0.54
284.63 0.555
284.64 0.545
284.64 0.555
284.64 0.555
284.65 0.555
284.65 0.565
284.66 0.595
284.66 0.625
284.66 0.645
284.67 0.695
284.67 0.71
284.68 0.75
284.68 0.775
284.68 0.815
284.69 0.835
284.69 0.875
284.7 0.895
284.7 0.925
284.7 0.95
284.71 1
284.71 1.045
284.72 1.06
284.72 1.075
284.72 1.085
284.73 1.09
284.73 1.11
284.74 1.145
284.74 1.155
284.74 1.18
284.75 1.205
284.75 1.205
284.76 1.21
284.76 1.22
284.76 1.21
284.77 1.195
284.77 1.22
284.78 1.235
284.78 1.23
284.78 1.22
284.79 1.205
284.79 1.185
284.8 1.175
284.8 1.16
284.8 1.095
284.81 1.065
284.81 1.045
284.82 1.025
284.82 1
284.82 0.975
284.83 0.94
284.83 0.89
284.84 0.84
284.84 0.79
284.84 0.76
284.85 0.71
284.85 0.665
284.86 0.635
284.86 0.575
284.86 0.51
284.87 0.47
284.87 0.425
284.88 0.36
284.88 0.315
284.88 0.265
284.89 0.225
284.89 0.19
284.9 0.155
284.9 0.105
284.9 0.04
284.91 -0.015
284.91 -0.05
284.92 -0.09
284.92 -0.115
284.92 -0.135
284.93 -0.15
284.93 -0.21
284.94 -0.245
284.94 -0.265
284.94 -0.295
284.95 -0.335
284.95 -0.335
284.96 -0.35
284.96 -0.345
284.96 -0.35
284.97 -0.365
284.97 -0.4
284.98 -0.4
284.98 -0.425
284.98 -0.455
284.99 -0.445
284.99 -0.46
285 -0.47
285 -0.445
285 -0.425
285.01 -0.445
285.01 -0.46
285.02 -0.48
285.02 -0.485
285.02 -0.46
285.03 -0.485
285.03 -0.48
285.04 -0.49
285.04 -0.495
285.04 -0.48
285.05 -0.485
285.05 -0.49
285.06 -0.5
285.06 -0.51
285.06 -0.5
285.07 -0.49
285.07 -0.475
285.08 -0.465
285.08 -0.48
285.08 -0.48
285.09 -0.5
285.09 -0.505
285.1 -0.49
285.1 -0.485
285.1 -0.475
285.11 -0.45
285.11 -0.465
285.12 -0.48
285.12 -0.48
285.12 -0.47
285.13 -0.48
285.13 -0.47
285.14 -0.48
285.14 -0.48
285.14 -0.48
285.15 -0.47
285.15 -0.465
285.16 -0.465
285.16 -0.49
285.16 -0.47
285.17 -0.505
285.17 -0.505
285.18 -0.48
285.18 -0.49
285.18 -0.495
285.19 -0.495
285.19 -0.465
285.2 -0.48
285.2 -0.49
285.2 -0.485
285.21 -0.495
285.21 -0.495
285.22 -0.49
285.22 -0.465
285.22 -0.465
285.23 -0.48
285.23 -0.455
285.24 -0.475
285.24 -0.485
285.24 -0.49
285.25 -0.485
285.25 -0.475
285.26 -0.475
285.26 -0.455
285.26 -0.455
285.27 -0.47
285.27 -0.49
285.28 -0.465
285.28 -0.48
285.28 -0.485
285.29 -0.475
285.29 -0.475
285.3 -0.46
285.3 -0.48
285.3 -0.465
285.31 -0.475
285.31 -0.485
285.32 -0.48
285.32 -0.49
285.32 -0.48
285.33 -0.47
285.33 -0.475
285.34 -0.465
285.34 -0.455
285.34 -0.45
285.35 -0.485
285.35 -0.485
285.36 -0.505
285.36 -0.505
285.36 -0.5
285.37 -0.48
285.37 -0.46
285.38 -0.495
285.38 -0.485
285.38 -0.48
285.39 -0.485
285.39 -0.49
285.4 -0.485
285.4 -0.455
285.4 -0.475
285.41 -0.465
285.41 -0.455
285.42 -0.455
285.42 -0.475
285.42 -0.495
285.43 -0.485
285.43 -0.49
285.44 -0.48
285.44 -0.45
285.44 -0.43
285.45 -0.41
285.45 -0.405
285.46 -0.395
285.46 -0.39
285.46 -0.38
285.47 -0.37
285.47 -0.32
285.48 -0.315
285.48 -0.295
285.48 -0.285
285.49 -0.26
285.49 -0.27
285.5 -0.275
285.5 -0.275
285.5 -0.315
285.51 -0.33
285.51 -0.32
285.52 -0.32
285.52 -0.335
285.52 -0.345
285.53 -0.385
285.53 -0.395
285.54 -0.415
285.54 -0.43
285.54 -0.445
285.55 -0.445
285.55 -0.44
285.56 -0.48
285.56 -0.52
285.56 -0.525
285.57 -0.535
285.57 -0.54
285.58 -0.55
285.58 -0.54
285.58 -0.55
285.59 -0.54
285.59 -0.545
285.6 -0.535
285.6 -0.55
285.6 -0.57
285.61 -0.565
285.61 -0.57
285.62 -0.55
285.62 -0.535
285.62 -0.535
285.63 -0.52
285.63 -0.52
285.64 -0.525
285.64 -0.53
285.64 -0.525
285.65 -0.535
285.65 -0.52
285.66 -0.475
285.66 -0.38
285.66 -0.295
285.67 -0.165
285.67 0.005
285.68 0.195
285.68 0.325
285.68 0.405
285.69 0.495
285.69 0.53
285.7 0.51
285.7 0.475
285.7 0.385
285.71 0.305
285.71 0.31
285.72 0.29
285.72 0.3
285.72 0.335
285.73 0.3
285.73 0.22
285.74 0.11
285.74 0.005
285.74 -0.04
285.75 0.045
285.75 0.175
285.76 0.255
285.76 0.165
285.76 -0.02
285.77 -0.205
285.77 -0.36
285.78 -0.415
285.78 -0.435
285.78 -0.435
285.79 -0.455
285.79 -0.525
285.8 -0.57
285.8 -0.6
285.8 -0.605
285.81 -0.57
285.81 -0.575
285.82 -0.565
285.82 -0.57
285.82 -0.585
285.83 -0.6
285.83 -0.59
285.84 -0.61
285.84 -0.595
285.84 -0.58
285.85 -0.58
285.85 -0.58
285.86 -0.585
285.86 -0.605
285.86 -0.61
285.87 -0.615
285.87 -0.63
285.88 -0.65
285.88 -0.615
285.88 -0.63
285.89 -0.62
285.89 -0.65
285.9 -0.655
285.9 -0.685
285.9 -0.695
285.91 -0.705
285.91 -0.71
285.92 -0.705
285.92 -0.69
285.92 -0.69
285.93 -0.71
285.93 -0.715
285.94 -0.715
285.94 -0.73
285.94 -0.74
285.95 -0.76
285.95 -0.74
285.96 -0.72
285.96 -0.75
285.96 -0.75
285.97 -0.75
285.97 -0.76
285.98 -0.755
285.98 -0.755
285.98 -0.76
285.99 -0.75
285.99 -0.75
286 -0.73
286 -0.755
286 -0.755
286.01 -0.75
286.01 -0.76
286.02 -0.735
286.02 -0.73
286.02 -0.72
286.03 -0.705
286.03 -0.7
286.04 -0.7
286.04 -0.695
286.04 -0.72
286.05 -0.705
286.05 -0.695
286.06 -0.695
286.06 -0.68
286.06 -0.64
286.07 -0.635
286.07 -0.605
286.08 -0.595
286.08 -0.59
286.08 -0.59
286.09 -0.575
286.09 -0.575
286.1 -0.56
286.1 -0.545
286.1 -0.53
286.11 -0.52
286.11 -0.525
286.12 -0.52
286.12 -0.515
286.12 -0.53
286.13 -0.495
286.13 -0.525
286.14 -0.495
286.14 -0.495
286.14 -0.495
286.15 -0.5
286.15 -0.53
286.16 -0.52
286.16 -0.545
286.16 -0.535
286.17 -0.52
286.17 -0.53
286.18 -0.545
286.18 -0.52
286.18 -0.53
286.19 -0.555
286.19 -0.56
286.2 -0.56
286.2 -0.585
286.2 -0.575
286.21 -0.555
286.21 -0.565
286.22 -0.575
286.22 -0.565
286.22 -0.575
286.23 -0.58
286.23 -0.565
286.24 -0.56
286.24 -0.57
286.24 -0.57
286.25 -0.575
286.25 -0.57
286.26 -0.58
286.26 -0.59
286.26 -0.56
286.27 -0.58
286.27 -0.58
286.28 -0.55
286.28 -0.54
286.28 -0.54
286.29 -0.535
286.29 -0.54
286.3 -0.54
286.3 -0.55
286.3 -0.55
286.31 -0.555
286.31 -0.535
286.32 -0.52
286.32 -0.515
286.32 -0.53
286.33 -0.53
286.33 -0.525
286.34 -0.545
286.34 -0.535
286.34 -0.535
286.35 -0.53
286.35 -0.53
286.36 -0.52
286.36 -0.53
286.36 -0.55
286.37 -0.54
286.37 -0.535
286.38 -0.525
286.38 -0.515
286.38 -0.5
286.39 -0.46
286.39 -0.44
286.4 -0.43
286.4 -0.44
286.4 -0.42
286.41 -0.395
286.41 -0.385
286.42 -0.385
286.42 -0.355
286.42 -0.325
286.43 -0.305
286.43 -0.305
286.44 -0.31
286.44 -0.335
286.44 -0.37
286.45 -0.36
286.45 -0.395
286.46 -0.4
286.46 -0.385
286.46 -0.365
286.47 -0.39
286.47 -0.42
286.48 -0.44
286.48 -0.475
286.48 -0.485
286.49 -0.485
286.49 -0.505
286.5 -0.53
286.5 -0.545
286.5 -0.54
286.51 -0.55
286.51 -0.545
286.52 -0.54
286.52 -0.575
286.52 -0.575
286.53 -0.57
286.53 -0.565
286.54 -0.555
286.54 -0.545
286.54 -0.55
286.55 -0.54
286.55 -0.56
286.56 -0.555
286.56 -0.56
286.56 -0.555
286.57 -0.56
286.57 -0.545
286.58 -0.55
286.58 -0.535
286.58 -0.535
286.59 -0.545
286.59 -0.54
286.6 -0.51
286.6 -0.475
286.6 -0.405
286.61 -0.32
286.61 -0.16
286.62 -0.005
286.62 0.145
286.62 0.225
286.63 0.275
286.63 0.31
286.64 0.31
286.64 0.285
286.64 0.205
286.65 0.14
286.65 0.11
286.66 0.075
286.66 0.08
286.66 0.1
286.67 0.095
286.67 0.08
286.68 0.03
286.68 -0.045
286.68 -0.11
286.69 -0.095
286.69 0.01
286.7 0.115
286.7 0.155
286.7 0.08
286.71 -0.095
286.71 -0.295
286.72 -0.415
286.72 -0.46
286.72 -0.44
286.73 -0.475
286.73 -0.505
286.74 -0.54
286.74 -0.6
286.74 -0.61
286.75 -0.61
286.75 -0.59
286.76 -0.6
286.76 -0.605
286.76 -0.585
286.77 -0.575
286.77 -0.59
286.78 -0.605
286.78 -0.6
286.78 -0.59
286.79 -0.6
286.79 -0.585
286.8 -0.585
286.8 -0.57
286.8 -0.58
286.81 -0.575
286.81 -0.61
286.82 -0.62
286.82 -0.61
286.82 -0.6
286.83 -0.605
286.83 -0.62
286.84 -0.595
286.84 -0.6
286.84 -0.615
286.85 -0.64
286.85 -0.64
286.86 -0.655
286.86 -0.655
286.86 -0.645
286.87 -0.65
286.87 -0.635
286.88 -0.645
286.88 -0.665
286.88 -0.65
286.89 -0.69
286.89 -0.68
286.9 -0.695
286.9 -0.69
286.9 -0.685
286.91 -0.695
286.91 -0.685
286.92 -0.66
286.92 -0.7
286.92 -0.705
286.93 -0.705
286.93 -0.71
286.94 -0.695
286.94 -0.695
286.94 -0.68
286.95 -0.675
286.95 -0.685
286.96 -0.69
286.96 -0.66
286.96 -0.67
286.97 -0.67
286.97 -0.655
286.98 -0.655
286.98 -0.66
286.98 -0.635
286.99 -0.625
286.99 -0.61
287 -0.635
287 -0.605
287 -0.625
287.01 -0.6
287.01 -0.565
287.02 -0.555
287.02 -0.54
287.02 -0.525
287.03 -0.52
287.03 -0.505
287.04 -0.5
287.04 -0.49
287.04 -0.475
287.05 -0.46
287.05 -0.45
287.06 -0.43
287.06 -0.435
287.06 -0.455
287.07 -0.455
287.07 -0.445
287.08 -0.45
287.08 -0.46
287.08 -0.46
287.09 -0.46
287.09 -0.45
287.1 -0.465
287.1 -0.48
287.1 -0.47
287.11 -0.48
287.11 -0.48
287.12 -0.48
287.12 -0.475
287.12 -0.47
287.13 -0.455
287.13 -0.475
287.14 -0.48
287.14 -0.495
287.14 -0.485
287.15 -0.5
287.15 -0.475
287.16 -0.48
287.16 -0.47
287.16 -0.475
287.17 -0.475
287.17 -0.485
287.18 -0.49
287.18 -0.485
287.18 -0.525
287.19 -0.485
287.19 -0.495
287.2 -0.475
287.2 -0.455
287.2 -0.465
287.21 -0.475
287.21 -0.46
287.22 -0.495
287.22 -0.485
287.22 -0.47
287.23 -0.47
287.23 -0.46
287.24 -0.455
287.24 -0.45
287.24 -0.45
287.25 -0.45
287.25 -0.45
287.26 -0.45
287.26 -0.455
287.26 -0.43
287.27 -0.43
287.27 -0.455
287.28 -0.44
287.28 -0.43
287.28 -0.445
287.29 -0.445
287.29 -0.465
287.3 -0.45
287.3 -0.415
287.3 -0.4
287.31 -0.38
287.31 -0.36
287.32 -0.355
287.32 -0.34
287.32 -0.325
287.33 -0.31
287.33 -0.31
287.34 -0.295
287.34 -0.26
287.34 -0.255
287.35 -0.23
287.35 -0.24
287.36 -0.265
287.36 -0.3
287.36 -0.32
287.37 -0.315
287.37 -0.33
287.38 -0.32
287.38 -0.315
287.38 -0.335
287.39 -0.365
287.39 -0.375
287.4 -0.375
287.4 -0.405
287.4 -0.435
287.41 -0.425
287.41 -0.435
287.42 -0.44
287.42 -0.47
287.42 -0.465
287.43 -0.48
287.43 -0.485
287.44 -0.475
287.44 -0.48
287.44 -0.465
287.45 -0.465
287.45 -0.48
287.46 -0.46
287.46 -0.48
287.46 -0.465
287.47 -0.49
287.47 -0.475
287.48 -0.465
287.48 -0.46
287.48 -0.45
287.49 -0.45
287.49 -0.46
287.5 -0.44
287.5 -0.455
287.5 -0.46
287.51 -0.46
287.51 -0.44
287.52 -0.4
287.52 -0.355
287.52 -0.27
287.53 -0.15
287.53 0.005
287.54 0.165
287.54 0.315
287.54 0.425
287.55 0.5
287.55 0.505
287.56 0.5
287.56 0.44
287.56 0.345
287.57 0.285
287.57 0.25
287.58 0.255
287.58 0.245
287.58 0.255
287.59 0.245
287.59 0.215
287.6 0.135
287.6 0.025
287.6 0.005
287.61 0.07
287.61 0.185
287.62 0.23
287.62 0.16
287.62 0.02
287.63 -0.16
287.63 -0.31
287.64 -0.37
287.64 -0.4
287.64 -0.395
287.65 -0.42
287.65 -0.47
287.66 -0.5
287.66 -0.525
287.66 -0.53
287.67 -0.51
287.67 -0.495
287.68 -0.5
287.68 -0.495
287.68 -0.495
287.69 -0.5
287.69 -0.5
287.7 -0.51
287.7 -0.495
287.7 -0.485
287.71 -0.48
287.71 -0.475
287.72 -0.495
287.72 -0.49
287.72 -0.505
287.73 -0.515
287.73 -0.51
287.74 -0.535
287.74 -0.505
287.74 -0.51
287.75 -0.505
287.75 -0.525
287.76 -0.53
287.76 -0.54
287.76 -0.54
287.77 -0.555
287.77 -0.535
287.78 -0.525
287.78 -0.545
287.78 -0.555
287.79 -0.56
287.79 -0.585
287.8 -0.585
287.8 -0.59
287.8 -0.585
287.81 -0.575
287.81 -0.585
287.82 -0.575
287.82 -0.58
287.82 -0.6
287.83 -0.605
287.83 -0.605
287.84 -0.605
287.84 -0.61
287.84 -0.615
287.85 -0.615
287.85 -0.61
287.86 -0.58
287.86 -0.59
287.86 -0.61
287.87 -0.6
287.87 -0.6
287.88 -0.6
287.88 -0.595
287.88 -0.59
287.89 -0.58
287.89 -0.58
287.9 -0.57
287.9 -0.565
287.9 -0.58
287.91 -0.56
287.91 -0.535
287.92 -0.525
287.92 -0.525
287.92 -0.505
287.93 -0.48
287.93 -0.48
287.94 -0.47
287.94 -0.46
287.94 -0.465
287.95 -0.45
287.95 -0.43
287.96 -0.4
287.96 -0.38
287.96 -0.37
287.97 -0.39
287.97 -0.395
287.98 -0.38
287.98 -0.375
287.98 -0.37
287.99 -0.375
287.99 -0.35
288 -0.355
288 -0.35
288 -0.37
288.01 -0.375
288.01 -0.385
288.02 -0.39
288.02 -0.39
288.02 -0.385
288.03 -0.38
288.03 -0.385
288.04 -0.39
288.04 -0.385
288.04 -0.38
288.05 -0.385
288.05 -0.39
288.06 -0.39
288.06 -0.385
288.06 -0.375
288.07 -0.39
288.07 -0.39
288.08 -0.39
288.08 -0.405
288.08 -0.415
288.09 -0.395
288.09 -0.41
288.1 -0.405
288.1 -0.395
288.1 -0.4
288.11 -0.385
288.11 -0.395
288.12 -0.4
288.12 -0.395
288.12 -0.4
288.13 -0.41
288.13 -0.395
288.14 -0.365
288.14 -0.375
288.14 -0.38
288.15 -0.37
288.15 -0.37
288.16 -0.395
288.16 -0.395
288.16 -0.38
288.17 -0.395
288.17 -0.38
288.18 -0.35
288.18 -0.375
288.18 -0.35
288.19 -0.365
288.19 -0.365
288.2 -0.365
288.2 -0.37
288.2 -0.345
288.21 -0.345
288.21 -0.32
288.22 -0.265
288.22 -0.275
288.22 -0.275
288.23 -0.265
288.23 -0.245
288.24 -0.245
288.24 -0.215
288.24 -0.19
288.25 -0.185
288.25 -0.16
288.26 -0.14
288.26 -0.15
288.26 -0.18
288.27 -0.205
288.27 -0.2
288.28 -0.205
288.28 -0.21
288.28 -0.2
288.29 -0.23
288.29 -0.225
288.3 -0.24
288.3 -0.275
288.3 -0.295
288.31 -0.31
288.31 -0.3
288.32 -0.315
288.32 -0.325
288.32 -0.32
288.33 -0.36
288.33 -0.36
288.34 -0.38
288.34 -0.385
288.34 -0.365
288.35 -0.365
288.35 -0.37
288.36 -0.355
288.36 -0.35
288.36 -0.365
288.37 -0.365
288.37 -0.365
288.38 -0.36
288.38 -0.375
288.38 -0.375
288.39 -0.365
288.39 -0.38
288.4 -0.365
288.4 -0.345
288.4 -0.37
288.41 -0.355
288.41 -0.355
288.42 -0.35
288.42 -0.33
288.42 -0.295
288.43 -0.24
288.43 -0.175
288.44 -0.075
288.44 0.065
288.44 0.235
288.45 0.35
288.45 0.43
288.46 0.485
288.46 0.525
288.46 0.505
288.47 0.47
288.47 0.395
288.48 0.325
288.48 0.295
288.48 0.285
288.49 0.29
288.49 0.335
288.5 0.335
288.5 0.285
288.5 0.21
288.51 0.15
288.51 0.095
288.52 0.13
288.52 0.26
288.52 0.335
288.53 0.325
288.53 0.22
288.54 0.025
288.54 -0.145
288.54 -0.24
288.55 -0.285
288.55 -0.3
288.56 -0.31
288.56 -0.355
288.56 -0.405
288.57 -0.435
288.57 -0.435
288.58 -0.415
288.58 -0.435
288.58 -0.44
288.59 -0.42
288.59 -0.435
288.6 -0.44
288.6 -0.43
288.6 -0.425
288.61 -0.43
288.61 -0.42
288.62 -0.415
288.62 -0.405
288.62 -0.435
288.63 -0.43
288.63 -0.45
288.64 -0.43
288.64 -0.44
288.64 -0.435
288.65 -0.44
288.65 -0.43
288.66 -0.425
288.66 -0.445
288.66 -0.45
288.67 -0.48
288.67 -0.475
288.68 -0.49
288.68 -0.485
288.68 -0.485
288.69 -0.495
288.69 -0.495
288.7 -0.515
288.7 -0.52
288.7 -0.505
288.71 -0.52
288.71 -0.54
288.72 -0.525
288.72 -0.52
288.72 -0.53
288.73 -0.54
288.73 -0.54
288.74 -0.545
288.74 -0.555
288.74 -0.56
288.75 -0.585
288.75 -0.55
288.76 -0.555
288.76 -0.54
288.76 -0.545
288.77 -0.555
288.77 -0.545
288.78 -0.56
288.78 -0.55
288.78 -0.56
288.79 -0.54
288.79 -0.53
288.8 -0.53
288.8 -0.525
288.8 -0.535
288.81 -0.515
288.81 -0.51
288.82 -0.52
288.82 -0.5
288.82 -0.475
288.83 -0.465
288.83 -0.445
288.84 -0.43
288.84 -0.425
288.84 -0.415
288.85 -0.41
288.85 -0.415
288.86 -0.37
288.86 -0.355
288.86 -0.35
288.87 -0.32
288.87 -0.305
288.88 -0.31
288.88 -0.33
288.88 -0.33
288.89 -0.335
288.89 -0.33
288.9 -0.32
288.9 -0.315
288.9 -0.32
288.91 -0.315
288.91 -0.335
288.92 -0.35
288.92 -0.37
288.92 -0.34
288.93 -0.36
288.93 -0.365
288.94 -0.35
288.94 -0.37
288.94 -0.35
288.95 -0.345
288.95 -0.37
288.96 -0.38
288.96 -0.365
288.96 -0.39
288.97 -0.38
288.97 -0.395
288.98 -0.355
288.98 -0.36
288.98 -0.375
288.99 -0.385
288.99 -0.37
289 -0.385
289 -0.395
289 -0.38
289.01 -0.385
289.01 -0.36
289.02 -0.38
289.02 -0.375
289.02 -0.385
289.03 -0.385
289.03 -0.38
289.04 -0.395
289.04 -0.395
289.04 -0.37
289.05 -0.345
289.05 -0.35
289.06 -0.345
289.06 -0.34
289.06 -0.36
289.07 -0.36
289.07 -0.345
289.08 -0.36
289.08 -0.35
289.08 -0.33
289.09 -0.325
289.09 -0.33
289.1 -0.32
289.1 -0.315
289.1 -0.345
289.11 -0.345
289.11 -0.305
289.12 -0.305
289.12 -0.275
289.12 -0.255
289.13 -0.235
289.13 -0.235
289.14 -0.225
289.14 -0.225
289.14 -0.225
289.15 -0.2
289.15 -0.16
289.16 -0.15
289.16 -0.125
289.16 -0.12
289.17 -0.14
289.17 -0.16
289.18 -0.19
289.18 -0.2
289.18 -0.205
289.19 -0.195
289.19 -0.22
289.2 -0.235
289.2 -0.25
289.2 -0.24
289.21 -0.27
289.21 -0.28
289.22 -0.295
289.22 -0.305
289.22 -0.315
289.23 -0.32
289.23 -0.345
289.24 -0.36
289.24 -0.37
289.24 -0.375
289.25 -0.375
289.25 -0.385
289.26 -0.395
289.26 -0.375
289.26 -0.355
289.27 -0.335
289.27 -0.34
289.28 -0.34
289.28 -0.345
289.28 -0.355
289.29 -0.365
289.29 -0.365
289.3 -0.36
289.3 -0.355
289.3 -0.33
289.31 -0.345
289.31 -0.34
289.32 -0.34
289.32 -0.325
289.32 -0.315
289.33 -0.29
289.33 -0.265
289.34 -0.205
289.34 -0.115
289.34 0.005
289.35 0.155
289.35 0.29
289.36 0.375
289.36 0.41
289.36 0.41
289.37 0.405
289.37 0.355
289.38 0.335
289.38 0.27
289.38 0.25
289.39 0.23
289.39 0.245
289.4 0.265
289.4 0.26
289.4 0.235
289.41 0.2
289.41 0.105
289.42 0.06
289.42 0.06
289.42 0.16
289.43 0.25
289.43 0.295
289.44 0.205
289.44 0.045
289.44 -0.135
289.45 -0.235
289.45 -0.295
289.46 -0.295
289.46 -0.285
289.46 -0.325
289.47 -0.38
289.47 -0.425
289.48 -0.435
289.48 -0.455
289.48 -0.415
289.49 -0.415
289.49 -0.43
289.5 -0.41
289.5 -0.405
289.5 -0.41
289.51 -0.455
289.51 -0.43
289.52 -0.445
289.52 -0.44
289.52 -0.43
289.53 -0.445
289.53 -0.41
289.54 -0.435
289.54 -0.44
289.54 -0.44
289.55 -0.44
289.55 -0.455
289.56 -0.465
289.56 -0.465
289.56 -0.445
289.57 -0.46
289.57 -0.455
289.58 -0.48
289.58 -0.48
289.58 -0.49
289.59 -0.47
289.59 -0.5
289.6 -0.5
289.6 -0.495
289.6 -0.515
289.61 -0.52
289.61 -0.54
289.62 -0.53
289.62 -0.525
289.62 -0.535
289.63 -0.54
289.63 -0.555
289.64 -0.54
289.64 -0.545
289.64 -0.55
289.65 -0.555
289.65 -0.565
289.66 -0.59
289.66 -0.565
289.66 -0.57
289.67 -0.565
289.67 -0.545
289.68 -0.555
289.68 -0.575
289.68 -0.565
289.69 -0.555
289.69 -0.56
289.7 -0.555
289.7 -0.53
289.7 -0.54
289.71 -0.53
289.71 -0.535
289.72 -0.54
289.72 -0.55
289.72 -0.525
289.73 -0.505
289.73 -0.515
289.74 -0.485
289.74 -0.45
289.74 -0.445
289.75 -0.445
289.75 -0.44
289.76 -0.41
289.76 -0.415
289.76 -0.4
289.77 -0.39
289.77 -0.375
289.78 -0.37
289.78 -0.365
289.78 -0.385
289.79 -0.37
289.79 -0.375
289.8 -0.365
289.8 -0.405
289.8 -0.4
289.81 -0.395
289.81 -0.38
289.82 -0.385
289.82 -0.385
289.82 -0.385
289.83 -0.385
289.83 -0.385
289.84 -0.4
289.84 -0.425
289.84 -0.425
289.85 -0.425
289.85 -0.41
289.86 -0.405
289.86 -0.41
289.86 -0.42
289.87 -0.425
289.87 -0.455
289.88 -0.46
289.88 -0.455
289.88 -0.44
289.89 -0.445
289.89 -0.445
289.9 -0.42
289.9 -0.435
289.9 -0.455
289.91 -0.46
289.91 -0.45
289.92 -0.45
289.92 -0.45
289.92 -0.45
289.93 -0.45
289.93 -0.445
289.94 -0.435
289.94 -0.435
289.94 -0.46
289.95 -0.46
289.95 -0.47
289.96 -0.465
289.96 -0.45
289.96 -0.43
289.97 -0.42
289.97 -0.44
289.98 -0.445
289.98 -0.435
289.98 -0.44
289.99 -0.445
289.99 -0.435
290 -0.445
290 -0.435