3751 2
275 0.665
275 0.71
275.01 0.745
275.01 0.76
275.02 0.785
275.02 0.79
275.02 0.815
275.03 0.835
275.03 0.86
275.04 0.87
275.04 0.92
275.04 0.9
275.05 0.905
275.05 0.92
275.06 0.915
275.06 0.91
275.06 0.91
275.07 0.925
275.07 0.925
275.08 0.905
275.08 0.92
275.08 0.91
275.09 0.89
275.09 0.87
275.1 0.825
275.1 0.775
275.1 0.735
275.11 0.695
275.11 0.67
275.12 0.615
275.12 0.565
275.12 0.51
275.13 0.445
275.13 0.405
275.14 0.315
275.14 0.245
275.14 0.205
275.15 0.145
275.15 0.115
275.16 0.07
275.16 0.035
275.16 0.005
275.17 -0.035
275.17 -0.065
275.18 -0.105
275.18 -0.125
275.18 -0.135
275.19 -0.155
275.19 -0.165
275.2 -0.155
275.2 -0.14
275.2 -0.18
275.21 -0.165
275.21 -0.17
275.22 -0.145
275.22 -0.16
275.22 -0.155
275.23 -0.115
275.23 -0.155
275.24 -0.16
275.24 -0.155
275.24 -0.145
275.25 -0.155
275.25 -0.16
275.26 -0.135
275.26 -0.14
275.26 -0.14
275.27 -0.15
275.27 -0.155
275.28 -0.16
275.28 -0.135
275.28 -0.17
275.29 -0.15
275.29 -0.17
275.3 -0.155
275.3 -0.175
275.3 -0.16
275.31 -0.185
275.31 -0.18
275.32 -0.185
275.32 -0.205
275.32 -0.185
275.33 -0.21
275.33 -0.21
275.34 -0.205
275.34 -0.22
275.34 -0.23
275.35 -0.24
275.35 -0.22
275.36 -0.24
275.36 -0.245
275.36 -0.245
275.37 -0.24
275.37 -0.25
275.38 -0.265
275.38 -0.25
275.38 -0.245
275.39 -0.25
275.39 -0.26
275.4 -0.23
275.4 -0.205
275.4 -0.205
275.41 -0.17
275.41 -0.165
275.42 -0.14
275.42 -0.13
275.42 -0.135
275.43 -0.125
275.43 -0.12
275.44 -0.13
275.44 -0.105
275.44 -0.155
275.45 -0.165
275.45 -0.205
275.46 -0.25
275.46 -0.25
275.46 -0.27
275.47 -0.275
275.47 -0.27
275.48 -0.29
275.48 -0.305
275.48 -0.31
275.49 -0.32
275.49 -0.315
275.5 -0.31
275.5 -0.31
275.5 -0.305
275.51 -0.3
275.51 -0.295
275.52 -0.28
275.52 -0.29
275.52 -0.285
275.53 -0.3
275.53 -0.285
275.54 -0.295
275.54 -0.31
275.54 -0.295
275.55 -0.27
275.55 -0.28
275.56 -0.285
275.56 -0.285
275.56 -0.29
275.57 -0.295
275.57 -0.29
275.58 -0.255
275.58 -0.285
275.58 -0.285
275.59 -0.275
275.59 -0.285
275.6 -0.28
275.6 -0.285
275.6 -0.295
275.61 -0.295
275.61 -0.32
275.62 -0.27
275.62 -0.235
275.62 -0.34
275.63 -0.765
275.63 -1.405
275.64 -2.045
275.64 -2.685
275.64 -3.28
275.65 -3.495
275.65 -3.57
275.66 -3.59
275.66 -3.64
275.66 -3.655
275.67 -3.59
275.67 -3.475
275.68 -3.285
275.68 -3.07
275.68 -2.9
275.69 -2.79
275.69 -2.665
275.7 -2.465
275.7 -2.165
275.7 -1.8
275.71 -1.41
275.71 -1.135
275.72 -0.915
275.72 -0.74
275.72 -0.585
275.73 -0.39
275.73 -0.175
275.74 -0.03
275.74 0.075
275.74 0.15
275.75 0.155
275.75 0.135
275.76 0.145
275.76 0.17
275.76 0.175
275.77 0.21
275.77 0.21
275.78 0.2
275.78 0.22
275.78 0.22
275.79 0.235
275.79 0.235
275.8 0.25
275.8 0.24
275.8 0.28
275.81 0.285
275.81 0.295
275.82 0.31
275.82 0.31
275.82 0.31
275.83 0.315
275.83 0.32
275.84 0.335
275.84 0.355
275.84 0.39
275.85 0.38
275.85 0.4
275.86 0.395
275.86 0.43
275.86 0.425
275.87 0.465
275.87 0.49
275.88 0.505
275.88 0.525
275.88 0.565
275.89 0.57
275.89 0.595
275.9 0.605
275.9 0.635
275.9 0.65
275.91 0.665
275.91 0.72
275.92 0.715
275.92 0.745
275.92 0.785
275.93 0.785
275.93 0.795
275.94 0.83
275.94 0.855
275.94 0.865
275.95 0.875
275.95 0.915
275.96 0.93
275.96 0.925
275.96 0.92
275.97 0.915
275.97 0.93
275.98 0.94
275.98 0.935
275.98 0.935
275.99 0.92
275.99 0.935
276 0.91
276 0.895
276 0.86
276.01 0.805
276.01 0.785
276.02 0.785
276.02 0.725
276.02 0.675
276.03 0.62
276.03 0.58
276.04 0.54
276.04 0.475
276.04 0.44
276.05 0.375
276.05 0.315
276.06 0.26
276.06 0.205
276.06 0.17
276.07 0.16
276.07 0.075
276.08 0.06
276.08 0.015
276.08 0.005
276.09 -0.02
276.09 -0.05
276.1 -0.05
276.1 -0.06
276.1 -0.065
276.11 -0.085
276.11 -0.08
276.12 -0.08
276.12 -0.06
276.12 -0.095
276.13 -0.085
276.13 -0.085
276.14 -0.055
276.14 -0.08
276.14 -0.065
276.15 -0.06
276.15 -0.065
276.16 -0.07
276.16 -0.05
276.16 -0.065
276.17 -0.06
276.17 -0.065
276.18 -0.05
276.18 -0.07
276.18 -0.07
276.19 -0.08
276.19 -0.085
276.2 -0.1
276.2 -0.09
276.2 -0.095
276.21 -0.11
276.21 -0.1
276.22 -0.095
276.22 -0.115
276.22 -0.125
276.23 -0.125
276.23 -0.115
276.24 -0.13
276.24 -0.135
276.24 -0.125
276.25 -0.16
276.25 -0.16
276.26 -0.19
276.26 -0.17
276.26 -0.18
276.27 -0.19
276.27 -0.18
276.28 -0.17
276.28 -0.17
276.28 -0.16
276.29 -0.175
276.29 -0.135
276.3 -0.115
276.3 -0.14
276.3 -0.1
276.31 -0.09
276.31 -0.075
276.32 -0.06
276.32 -0.055
276.32 -0.04
276.33 -0.08
276.33 -0.075
276.34 -0.1
276.34 -0.12
276.34 -0.145
276.35 -0.17
276.35 -0.17
276.36 -0.17
276.36 -0.185
276.36 -0.21
276.37 -0.235
276.37 -0.255
276.38 -0.24
276.38 -0.26
276.38 -0.245
276.39 -0.25
276.39 -0.26
276.4 -0.255
276.4 -0.25
276.4 -0.25
276.41 -0.275
276.41 -0.28
276.42 -0.28
276.42 -0.285
276.42 -0.26
276.43 -0.255
276.43 -0.275
276.44 -0.265
276.44 -0.275
276.44 -0.28
276.45 -0.265
276.45 -0.27
276.46 -0.275
276.46 -0.255
276.46 -0.275
276.47 -0.27
276.47 -0.27
276.48 -0.27
276.48 -0.275
276.48 -0.275
276.49 -0.275
276.49 -0.255
276.5 -0.27
276.5 -0.29
276.5 -0.28
276.51 -0.3
276.51 -0.26
276.52 -0.25
276.52 -0.31
276.52 -0.685
276.53 -1.325
276.53 -1.965
276.54 -2.605
276.54 -3.145
276.54 -3.37
276.55 -3.455
276.55 -3.525
276.56 -3.565
276.56 -3.525
276.56 -3.51
276.57 -3.425
276.57 -3.235
276.58 -3.045
276.58 -2.85
276.58 -2.76
276.59 -2.635
276.59 -2.5
276.6 -2.21
276.6 -1.855
276.6 -1.455
276.61 -1.16
276.61 -0.935
276.62 -0.74
276.62 -0.59
276.62 -0.42
276.63 -0.22
276.63 -0.045
276.64 0.06
276.64 0.115
276.64 0.135
276.65 0.13
276.65 0.155
276.66 0.13
276.66 0.155
276.66 0.15
276.67 0.175
276.67 0.165
276.68 0.2
276.68 0.2
276.68 0.205
276.69 0.215
276.69 0.215
276.7 0.22
276.7 0.245
276.7 0.24
276.71 0.25
276.71 0.27
276.72 0.28
276.72 0.295
276.72 0.33
276.73 0.33
276.73 0.295
276.74 0.325
276.74 0.33
276.74 0.33
276.75 0.355
276.75 0.4
276.76 0.405
276.76 0.415
276.76 0.445
276.77 0.475
276.77 0.465
276.78 0.485
276.78 0.515
276.78 0.525
276.79 0.56
276.79 0.59
276.8 0.575
276.8 0.61
276.8 0.64
276.81 0.65
276.81 0.67
276.82 0.675
276.82 0.7
276.82 0.73
276.83 0.76
276.83 0.78
276.84 0.79
276.84 0.805
276.84 0.8
276.85 0.825
276.85 0.86
276.86 0.86
276.86 0.88
276.86 0.885
276.87 0.875
276.87 0.905
276.88 0.875
276.88 0.88
276.88 0.87
276.89 0.875
276.89 0.85
276.9 0.85
276.9 0.84
276.9 0.795
276.91 0.775
276.91 0.745
276.92 0.685
276.92 0.63
276.92 0.57
276.93 0.54
276.93 0.49
276.94 0.455
276.94 0.4
276.94 0.33
276.95 0.255
276.95 0.225
276.96 0.18
276.96 0.13
276.96 0.075
276.97 0.055
276.97 0
276.98 0.005
276.98 -0.01
276.98 -0.045
276.99 -0.075
276.99 -0.08
277 -0.095
277 -0.09
277 -0.1
277.01 -0.115
277.01 -0.12
277.02 -0.105
277.02 -0.12
277.02 -0.115
277.03 -0.105
277.03 -0.1
277.04 -0.09
277.04 -0.11
277.04 -0.1
277.05 -0.09
277.05 -0.095
277.06 -0.085
277.06 -0.1
277.06 -0.115
277.07 -0.105
277.07 -0.08
277.08 -0.085
277.08 -0.12
277.08 -0.1
277.09 -0.09
277.09 -0.12
277.1 -0.12
277.1 -0.135
277.1 -0.14
277.11 -0.135
277.11 -0.14
277.12 -0.14
277.12 -0.145
277.12 -0.145
277.13 -0.16
277.13 -0.17
277.14 -0.18
277.14 -0.175
277.14 -0.185
277.15 -0.2
277.15 -0.19
277.16 -0.185
277.16 -0.19
277.16 -0.2
277.17 -0.21
277.17 -0.225
277.18 -0.22
277.18 -0.22
277.18 -0.215
277.19 -0.235
277.19 -0.23
277.2 -0.2
277.2 -0.215
277.2 -0.23
277.21 -0.235
277.21 -0.21
277.22 -0.195
277.22 -0.175
277.22 -0.15
277.23 -0.15
277.23 -0.145
277.24 -0.1
277.24 -0.095
277.24 -0.09
277.25 -0.105
277.25 -0.115
277.26 -0.115
277.26 -0.12
277.26 -0.145
277.27 -0.185
277.27 -0.205
277.28 -0.235
277.28 -0.245
277.28 -0.245
277.29 -0.265
277.29 -0.27
277.3 -0.295
277.3 -0.28
277.3 -0.285
277.31 -0.31
277.31 -0.28
277.32 -0.27
277.32 -0.26
277.32 -0.26
277.33 -0.26
277.33 -0.27
277.34 -0.26
277.34 -0.285
277.34 -0.285
277.35 -0.305
277.35 -0.27
277.36 -0.3
277.36 -0.28
277.36 -0.26
277.37 -0.275
277.37 -0.275
277.38 -0.285
277.38 -0.265
277.38 -0.295
277.39 -0.29
277.39 -0.295
277.4 -0.295
277.4 -0.285
277.4 -0.285
277.41 -0.29
277.41 -0.28
277.42 -0.29
277.42 -0.285
277.42 -0.295
277.43 -0.32
277.43 -0.295
277.44 -0.25
277.44 -0.26
277.44 -0.495
277.45 -1.045
277.45 -1.685
277.46 -2.325
277.46 -2.965
277.46 -3.225
277.47 -3.305
277.47 -3.39
277.48 -3.41
277.48 -3.455
277.48 -3.435
277.49 -3.355
277.49 -3.23
277.5 -3.055
277.5 -2.88
277.5 -2.77
277.51 -2.69
277.51 -2.575
277.52 -2.355
277.52 -2.03
277.52 -1.67
277.53 -1.31
277.53 -1.05
277.54 -0.87
277.54 -0.7
277.54 -0.56
277.55 -0.39
277.55 -0.195
277.56 -0.05
277.56 0.045
277.56 0.105
277.57 0.11
277.57 0.115
277.58 0.125
277.58 0.12
277.58 0.125
277.59 0.15
277.59 0.145
277.6 0.175
277.6 0.2
277.6 0.2
277.61 0.19
277.61 0.205
277.62 0.205
277.62 0.21
277.62 0.21
277.63 0.225
277.63 0.24
277.64 0.255
277.64 0.255
277.64 0.275
277.65 0.285
277.65 0.295
277.66 0.285
277.66 0.31
277.66 0.335
277.67 0.325
277.67 0.355
277.68 0.4
277.68 0.375
277.68 0.41
277.69 0.41
277.69 0.43
277.7 0.44
277.7 0.485
277.7 0.495
277.71 0.51
277.71 0.515
277.72 0.545
277.72 0.565
277.72 0.56
277.73 0.61
277.73 0.61
277.74 0.64
277.74 0.665
277.74 0.67
277.75 0.715
277.75 0.725
277.76 0.73
277.76 0.75
277.76 0.765
277.77 0.78
277.77 0.81
277.78 0.82
277.78 0.83
277.78 0.825
277.79 0.835
277.79 0.81
277.8 0.845
277.8 0.82
277.8 0.82
277.81 0.81
277.81 0.81
277.82 0.795
277.82 0.78
277.82 0.745
277.83 0.705
277.83 0.685
277.84 0.665
277.84 0.615
277.84 0.58
277.85 0.545
277.85 0.485
277.86 0.435
277.86 0.395
277.86 0.33
277.87 0.27
277.87 0.235
277.88 0.175
277.88 0.13
277.88 0.09
277.89 0.055
277.89 0.03
277.9 -0.03
277.9 -0.03
277.9 -0.05
277.91 -0.07
277.91 -0.09
277.92 -0.085
277.92 -0.095
277.92 -0.09
277.93 -0.115
277.93 -0.12
277.94 -0.13
277.94 -0.135
277.94 -0.145
277.95 -0.12
277.95 -0.115
277.96 -0.12
277.96 -0.095
277.96 -0.09
277.97 -0.115
277.97 -0.1
277.98 -0.105
277.98 -0.115
277.98 -0.12
277.99 -0.105
277.99 -0.085
278 -0.125
278 -0.115
278 -0.115
278.01 -0.13
278.01 -0.125
278.02 -0.12
278.02 -0.12
278.02 -0.13
278.03 -0.105
278.03 -0.135
278.04 -0.13
278.04 -0.145
278.04 -0.15
278.05 -0.145
278.05 -0.16
278.06 -0.17
278.06 -0.17
278.06 -0.16
278.07 -0.175
278.07 -0.18
278.08 -0.165
278.08 -0.17
278.08 -0.19
278.09 -0.19
278.09 -0.2
278.1 -0.21
278.1 -0.2
278.1 -0.18
278.11 -0.19
278.11 -0.215
278.12 -0.21
278.12 -0.21
278.12 -0.215
278.13 -0.185
278.13 -0.18
278.14 -0.15
278.14 -0.135
278.14 -0.145
278.15 -0.105
278.15 -0.08
278.16 -0.105
278.16 -0.1
278.16 -0.1
278.17 -0.1
278.17 -0.1
278.18 -0.105
278.18 -0.115
278.18 -0.145
278.19 -0.18
278.19 -0.205
278.2 -0.225
278.2 -0.2
278.2 -0.245
278.21 -0.235
278.21 -0.26
278.22 -0.25
278.22 -0.27
278.22 -0.26
278.23 -0.26
278.23 -0.27
278.24 -0.24
278.24 -0.24
278.24 -0.24
278.25 -0.225
278.25 -0.235
278.26 -0.24
278.26 -0.24
278.26 -0.25
278.27 -0.255
278.27 -0.25
278.28 -0.25
278.28 -0.24
278.28 -0.24
278.29 -0.245
278.29 -0.24
278.3 -0.255
278.3 -0.26
278.3 -0.255
278.31 -0.24
278.31 -0.25
278.32 -0.25
278.32 -0.225
278.32 -0.235
278.33 -0.235
278.33 -0.235
278.34 -0.245
278.34 -0.27
278.34 -0.28
278.35 -0.26
278.35 -0.215
278.36 -0.195
278.36 -0.37
278.36 -0.825
278.37 -1.465
278.37 -2.105
278.38 -2.745
278.38 -3.09
278.38 -3.23
278.39 -3.3
278.39 -3.315
278.4 -3.34
278.4 -3.335
278.4 -3.29
278.41 -3.14
278.41 -2.97
278.42 -2.775
278.42 -2.605
278.42 -2.52
278.43 -2.405
278.43 -2.22
278.44 -1.91
278.44 -1.56
278.44 -1.255
278.45 -0.99
278.45 -0.8
278.46 -0.655
278.46 -0.525
278.46 -0.35
278.47 -0.18
278.47 -0.04
278.48 0.08
278.48 0.115
278.48 0.14
278.49 0.115
278.49 0.12
278.5 0.1
278.5 0.145
278.5 0.155
278.51 0.15
278.51 0.165
278.52 0.165
278.52 0.19
278.52 0.17
278.53 0.175
278.53 0.17
278.54 0.195
278.54 0.195
278.54 0.205
278.55 0.23
278.55 0.235
278.56 0.22
278.56 0.235
278.56 0.275
278.57 0.265
278.57 0.28
278.58 0.295
278.58 0.315
278.58 0.33
278.59 0.35
278.59 0.325
278.6 0.35
278.6 0.365
278.6 0.365
278.61 0.395
278.61 0.44
278.62 0.445
278.62 0.435
278.62 0.5
278.63 0.485
278.63 0.49
278.64 0.52
278.64 0.54
278.64 0.54
278.65 0.57
278.65 0.6
278.66 0.635
278.66 0.66
278.66 0.675
278.67 0.675
278.67 0.685
278.68 0.695
278.68 0.725
278.68 0.71
278.69 0.73
278.69 0.77
278.7 0.765
278.7 0.765
278.7 0.775
278.71 0.775
278.71 0.765
278.72 0.77
278.72 0.785
278.72 0.755
278.73 0.755
278.73 0.75
278.74 0.715
278.74 0.685
278.74 0.65
278.75 0.635
278.75 0.6
278.76 0.56
278.76 0.51
278.76 0.465
278.77 0.455
278.77 0.395
278.78 0.34
278.78 0.3
278.78 0.245
278.79 0.21
278.79 0.165
278.8 0.125
278.8 0.085
278.8 0.05
278.81 0.03
278.81 -0.01
278.82 -0.03
278.82 -0.06
278.82 -0.06
278.83 -0.08
278.83 -0.08
278.84 -0.11
278.84 -0.115
278.84 -0.12
278.85 -0.12
278.85 -0.11
278.86 -0.11
278.86 -0.09
278.86 -0.095
278.87 -0.11
278.87 -0.095
278.88 -0.08
278.88 -0.095
278.88 -0.09
278.89 -0.1
278.89 -0.09
278.9 -0.09
278.9 -0.095
278.9 -0.085
278.91 -0.08
278.91 -0.08
278.92 -0.08
278.92 -0.095
278.92 -0.095
278.93 -0.1
278.93 -0.095
278.94 -0.095
278.94 -0.095
278.94 -0.095
278.95 -0.105
278.95 -0.12
278.96 -0.11
278.96 -0.115
278.96 -0.105
278.97 -0.135
278.97 -0.125
278.98 -0.155
278.98 -0.135
278.98 -0.14
278.99 -0.16
278.99 -0.15
279 -0.155
279 -0.16
279 -0.165
279.01 -0.17
279.01 -0.175
279.02 -0.155
279.02 -0.16
279.02 -0.16
279.03 -0.175
279.03 -0.16
279.04 -0.15
279.04 -0.15
279.04 -0.135
279.05 -0.09
279.05 -0.085
279.06 -0.1
279.06 -0.07
279.06 -0.07
279.07 -0.07
279.07 -0.055
279.08 -0.09
279.08 -0.095
279.08 -0.095
279.09 -0.145
279.09 -0.165
279.1 -0.165
279.1 -0.19
279.1 -0.195
279.11 -0.195
279.11 -0.225
279.12 -0.24
279.12 -0.235
279.12 -0.225
279.13 -0.26
279.13 -0.235
279.14 -0.235
279.14 -0.225
279.14 -0.235
279.15 -0.23
279.15 -0.23
279.16 -0.24
279.16 -0.225
279.16 -0.24
279.17 -0.24
279.17 -0.23
279.18 -0.26
279.18 -0.26
279.18 -0.25
279.19 -0.26
279.19 -0.26
279.2 -0.25
279.2 -0.245
279.2 -0.245
279.21 -0.265
279.21 -0.255
279.22 -0.245
279.22 -0.255
279.22 -0.245
279.23 -0.25
279.23 -0.26
279.24 -0.27
279.24 -0.265
279.24 -0.28
279.25 -0.3
279.25 -0.28
279.26 -0.255
279.26 -0.31
279.26 -0.55
279.27 -1.05
279.27 -1.69
279.28 -2.33
279.28 -2.835
279.28 -3.055
279.29 -3.165
279.29 -3.205
279.3 -3.235
279.3 -3.26
279.3 -3.205
279.31 -3.105
279.31 -2.95
279.32 -2.75
279.32 -2.585
279.32 -2.485
279.33 -2.375
279.33 -2.24
279.34 -1.975
279.34 -1.665
279.34 -1.33
279.35 -1.035
279.35 -0.84
279.36 -0.705
279.36 -0.565
279.36 -0.42
279.37 -0.255
279.37 -0.09
279.38 0
279.38 0.075
279.38 0.105
279.39 0.09
279.39 0.08
279.4 0.09
279.4 0.095
279.4 0.09
279.41 0.14
279.41 0.135
279.42 0.145
279.42 0.145
279.42 0.16
279.43 0.15
279.43 0.145
279.44 0.135
279.44 0.17
279.44 0.175
279.45 0.175
279.45 0.2
279.46 0.215
279.46 0.21
279.46 0.205
279.47 0.215
279.47 0.24
279.48 0.25
279.48 0.26
279.48 0.28
279.49 0.27
279.49 0.285
279.5 0.29
279.5 0.31
279.5 0.315
279.51 0.35
279.51 0.355
279.52 0.375
279.52 0.39
279.52 0.435
279.53 0.43
279.53 0.445
279.54 0.445
279.54 0.465
279.54 0.495
279.55 0.53
279.55 0.53
279.56 0.53
279.56 0.58
279.56 0.58
279.57 0.605
279.57 0.635
279.58 0.645
279.58 0.645
279.58 0.66
279.59 0.685
279.59 0.695
279.6 0.7
279.6 0.72
279.6 0.745
279.61 0.74
279.61 0.715
279.62 0.715
279.62 0.7
279.62 0.71
279.63 0.72
279.63 0.695
279.64 0.665
279.64 0.645
279.64 0.61
279.65 0.57
279.65 0.54
279.66 0.51
279.66 0.48
279.66 0.44
279.67 0.4
279.67 0.335
279.68 0.295
279.68 0.23
279.68 0.185
279.69 0.125
279.69 0.08
279.7 0.05
279.7 0.02
279.7 -0.025
279.71 -0.05
279.71 -0.09
279.72 -0.115
279.72 -0.125
279.72 -0.175
279.73 -0.19
279.73 -0.195
279.74 -0.195
279.74 -0.205
279.74 -0.2
279.75 -0.215
279.75 -0.21
279.76 -0.2
279.76 -0.205
279.76 -0.2
279.77 -0.205
279.77 -0.215
279.78 -0.19
279.78 -0.19
279.78 -0.2
279.79 -0.2
279.79 -0.21
279.8 -0.195
279.8 -0.21
279.8 -0.15
279.81 -0.185
279.81 -0.18
279.82 -0.18
279.82 -0.18
279.82 -0.19
279.83 -0.205
279.83 -0.19
279.84 -0.2
279.84 -0.2
279.84 -0.21
279.85 -0.21
279.85 -0.195
279.86 -0.21
279.86 -0.23
279.86 -0.245
279.87 -0.245
279.87 -0.24
279.88 -0.24
279.88 -0.23
279.88 -0.26
279.89 -0.27
279.89 -0.235
279.9 -0.24
279.9 -0.26
279.9 -0.255
279.91 -0.265
279.91 -0.265
279.92 -0.255
279.92 -0.27
279.92 -0.265
279.93 -0.285
279.93 -0.27
279.94 -0.28
279.94 -0.285
279.94 -0.28
279.95 -0.265
279.95 -0.24
279.96 -0.25
279.96 -0.23
279.96 -0.215
279.97 -0.195
279.97 -0.17
279.98 -0.17
279.98 -0.155
279.98 -0.15
279.99 -0.15
279.99 -0.16
280 -0.155
280 -0.185
280 -0.2
280.01 -0.225
280.01 -0.275
280.02 -0.245
280.02 -0.265
280.02 -0.29
280.03 -0.29
280.03 -0.3
280.04 -0.295
280.04 -0.315
280.04 -0.32
280.05 -0.345
280.05 -0.32
280.06 -0.34
280.06 -0.32
280.06 -0.31
280.07 -0.3
280.07 -0.31
280.08 -0.32
280.08 -0.335
280.08 -0.325
280.09 -0.32
280.09 -0.33
280.1 -0.32
280.1 -0.34
280.1 -0.325
280.11 -0.34
280.11 -0.31
280.12 -0.335
280.12 -0.32
280.12 -0.34
280.13 -0.35
280.13 -0.335
280.14 -0.32
280.14 -0.34
280.14 -0.35
280.15 -0.325
280.15 -0.325
280.16 -0.33
280.16 -0.34
280.16 -0.365
280.17 -0.38
280.17 -0.375
280.18 -0.35
280.18 -0.355
280.18 -0.555
280.19 -0.995
280.19 -1.635
280.2 -2.275
280.2 -2.805
280.2 -3.035
280.21 -3.165
280.21 -3.19
280.22 -3.205
280.22 -3.23
280.22 -3.225
280.23 -3.19
280.23 -3.08
280.24 -2.89
280.24 -2.72
280.24 -2.57
280.25 -2.52
280.25 -2.38
280.26 -2.175
280.26 -1.885
280.26 -1.575
280.27 -1.22
280.27 -0.97
280.28 -0.8
280.28 -0.67
280.28 -0.535
280.29 -0.365
280.29 -0.23
280.3 -0.085
280.3 -0.015
280.3 0.015
280.31 0.025
280.31 0.025
280.32 0.015
280.32 0.035
280.32 0.07
280.33 0.05
280.33 0.075
280.34 0.075
280.34 0.075
280.34 0.09
280.35 0.105
280.35 0.115
280.36 0.105
280.36 0.115
280.36 0.13
280.37 0.13
280.37 0.16
280.38 0.155
280.38 0.15
280.38 0.165
280.39 0.15
280.39 0.21
280.4 0.215
280.4 0.21
280.4 0.245
280.41 0.24
280.41 0.245
280.42 0.255
280.42 0.265
280.42 0.275
280.43 0.29
280.43 0.33
280.44 0.31
280.44 0.36
280.44 0.365
280.45 0.365
280.45 0.375
280.46 0.405
280.46 0.445
280.46 0.44
280.47 0.475
280.47 0.485
280.48 0.48
280.48 0.52
280.48 0.54
280.49 0.55
280.49 0.57
280.5 0.585
280.5 0.615
280.5 0.615
280.51 0.645
280.51 0.645
280.52 0.645
280.52 0.68
280.52 0.65
280.53 0.67
280.53 0.66
280.54 0.67
280.54 0.68
280.54 0.66
280.55 0.65
280.55 0.655
280.56 0.63
280.56 0.615
280.56 0.575
280.57 0.565
280.57 0.555
280.58 0.52
280.58 0.475
280.58 0.415
280.59 0.4
280.59 0.34
280.6 0.28
280.6 0.24
280.6 0.2
280.61 0.125
280.61 0.08
280.62 0.04
280.62 0.025
280.62 -0.045
280.63 -0.08
280.63 -0.095
280.64 -0.125
280.64 -0.16
280.64 -0.175
280.65 -0.2
280.65 -0.195
280.66 -0.205
280.66 -0.21
280.66 -0.24
280.67 -0.24
280.67 -0.255
280.68 -0.24
280.68 -0.245
280.68 -0.245
280.69 -0.225
280.69 -0.23
280.7 -0.21
280.7 -0.23
280.7 -0.225
280.71 -0.215
280.71 -0.21
280.72 -0.22
280.72 -0.24
280.72 -0.24
280.73 -0.21
280.73 -0.22
280.74 -0.25
280.74 -0.235
280.74 -0.24
280.75 -0.215
280.75 -0.245
280.76 -0.22
280.76 -0.225
280.76 -0.22
280.77 -0.25
280.77 -0.26
280.78 -0.26
280.78 -0.265
280.78 -0.27
280.79 -0.26
280.79 -0.285
280.8 -0.265
280.8 -0.28
280.8 -0.28
280.81 -0.28
280.81 -0.3
280.82 -0.29
280.82 -0.28
280.82 -0.315
280.83 -0.295
280.83 -0.315
280.84 -0.32
280.84 -0.305
280.84 -0.295
280.85 -0.295
280.85 -0.31
280.86 -0.315
280.86 -0.32
280.86 -0.31
280.87 -0.32
280.87 -0.3
280.88 -0.31
280.88 -0.27
280.88 -0.28
280.89 -0.27
280.89 -0.25
280.9 -0.255
280.9 -0.21
280.9 -0.195
280.91 -0.175
280.91 -0.17
280.92 -0.17
280.92 -0.18
280.92 -0.195
280.93 -0.205
280.93 -0.22
280.94 -0.265
280.94 -0.265
280.94 -0.285
280.95 -0.275
280.95 -0.275
280.96 -0.305
280.96 -0.305
280.96 -0.335
280.97 -0.32
280.97 -0.315
280.98 -0.32
280.98 -0.325
280.98 -0.305
280.99 -0.305
280.99 -0.315
281 -0.32
281 -0.32
281 -0.315
281.01 -0.345
281.01 -0.345
281.02 -0.335
281.02 -0.32
281.02 -0.32
281.03 -0.315
281.03 -0.32
281.04 -0.315
281.04 -0.32
281.04 -0.325
281.05 -0.325
281.05 -0.315
281.06 -0.305
281.06 -0.315
281.06 -0.345
281.07 -0.35
281.07 -0.325
281.08 -0.33
281.08 -0.35
281.08 -0.33
281.09 -0.35
281.09 -0.375
281.1 -0.39
281.1 -0.385
281.1 -0.385
281.11 -0.445
281.11 -0.71
281.12 -1.26
281.12 -1.9
281.12 -2.525
281.13 -2.86
281.13 -3.04
281.14 -3.085
281.14 -3.14
281.14 -3.165
281.15 -3.165
281.15 -3.115
281.16 -2.99
281.16 -2.84
281.16 -2.605
281.17 -2.47
281.17 -2.37
281.18 -2.27
281.18 -2.11
281.18 -1.845
281.19 -1.55
281.19 -1.23
281.2 -0.985
281.2 -0.785
281.2 -0.675
281.21 -0.535
281.21 -0.405
281.22 -0.26
281.22 -0.115
281.22 0
281.23 0.025
281.23 0.06
281.24 0.06
281.24 0.04
281.24 0.08
281.25 0.08
281.25 0.08
281.26 0.09
281.26 0.09
281.26 0.09
281.27 0.115
281.27 0.135
281.28 0.13
281.28 0.145
281.28 0.175
281.29 0.15
281.29 0.17
281.3 0.17
281.3 0.185
281.3 0.19
281.31 0.22
281.31 0.21
281.32 0.22
281.32 0.235
281.32 0.24
281.33 0.235
281.33 0.27
281.34 0.26
281.34 0.285
281.34 0.31
281.35 0.34
281.35 0.325
281.36 0.35
281.36 0.355
281.36 0.375
281.37 0.385
281.37 0.4
281.38 0.41
281.38 0.445
281.38 0.455
281.39 0.47
281.39 0.505
281.4 0.52
281.4 0.525
281.4 0.52
281.41 0.555
281.41 0.575
281.42 0.605
281.42 0.62
281.42 0.635
281.43 0.635
281.43 0.655
281.44 0.64
281.44 0.645
281.44 0.67
281.45 0.67
281.45 0.685
281.46 0.715
281.46 0.705
281.46 0.695
281.47 0.685
281.47 0.675
281.48 0.67
281.48 0.655
281.48 0.645
281.49 0.625
281.49 0.595
281.5 0.575
281.5 0.565
281.5 0.5
281.51 0.475
281.51 0.445
281.52 0.395
281.52 0.36
281.52 0.315
281.53 0.265
281.53 0.225
281.54 0.16
281.54 0.13
281.54 0.075
281.55 0.03
281.55 0.02
281.56 -0.035
281.56 -0.065
281.56 -0.075
281.57 -0.095
281.57 -0.135
281.58 -0.13
281.58 -0.16
281.58 -0.15
281.59 -0.155
281.59 -0.165
281.6 -0.18
281.6 -0.18
281.6 -0.16
281.61 -0.155
281.61 -0.155
281.62 -0.2
281.62 -0.175
281.62 -0.17
281.63 -0.16
281.63 -0.175
281.64 -0.16
281.64 -0.16
281.64 -0.165
281.65 -0.175
281.65 -0.16
281.66 -0.145
281.66 -0.16
281.66 -0.145
281.67 -0.145
281.67 -0.13
281.68 -0.16
281.68 -0.165
281.68 -0.175
281.69 -0.195
281.69 -0.185
281.7 -0.205
281.7 -0.19
281.7 -0.19
281.71 -0.21
281.71 -0.19
281.72 -0.195
281.72 -0.225
281.72 -0.215
281.73 -0.225
281.73 -0.23
281.74 -0.22
281.74 -0.225
281.74 -0.22
281.75 -0.24
281.75 -0.245
281.76 -0.23
281.76 -0.235
281.76 -0.25
281.77 -0.245
281.77 -0.255
281.78 -0.255
281.78 -0.24
281.78 -0.235
281.79 -0.255
281.79 -0.24
281.8 -0.195
281.8 -0.2
281.8 -0.175
281.81 -0.18
281.81 -0.155
281.82 -0.145
281.82 -0.14
281.82 -0.135
281.83 -0.175
281.83 -0.17
281.84 -0.17
281.84 -0.185
281.84 -0.21
281.85 -0.23
281.85 -0.245
281.86 -0.24
281.86 -0.265
281.86 -0.285
281.87 -0.275
281.87 -0.305
281.88 -0.29
281.88 -0.31
281.88 -0.32
281.89 -0.29
281.89 -0.305
281.9 -0.305
281.9 -0.29
281.9 -0.29
281.91 -0.295
281.91 -0.295
281.92 -0.31
281.92 -0.315
281.92 -0.315
281.93 -0.305
281.93 -0.3
281.94 -0.315
281.94 -0.31
281.94 -0.305
281.95 -0.32
281.95 -0.29
281.96 -0.28
281.96 -0.305
281.96 -0.29
281.97 -0.295
281.97 -0.27
281.98 -0.28
281.98 -0.275
281.98 -0.285
281.99 -0.315
281.99 -0.28
282 -0.295
282 -0.305
282 -0.325
282.01 -0.33
282.01 -0.325
282.02 -0.33
282.02 -0.445
282.02 -0.795
282.03 -1.41
282.03 -2.05
282.04 -2.655
282.04 -2.98
282.04 -3.11
282.05 -3.17
282.05 -3.21
282.06 -3.22
282.06 -3.22
282.06 -3.185
282.07 -3.085
282.07 -2.91
282.08 -2.705
282.08 -2.555
282.08 -2.45
282.09 -2.315
282.09 -2.12
282.1 -1.835
282.1 -1.525
282.1 -1.175
282.11 -0.93
282.11 -0.77
282.12 -0.635
282.12 -0.49
282.12 -0.35
282.13 -0.19
282.13 -0.06
282.14 0.035
282.14 0.05
282.14 0.09
282.15 0.1
282.15 0.085
282.16 0.1
282.16 0.105
282.16 0.095
282.17 0.115
282.17 0.105
282.18 0.135
282.18 0.145
282.18 0.155
282.19 0.165
282.19 0.16
282.2 0.19
282.2 0.195
282.2 0.205
282.21 0.19
282.21 0.23
282.22 0.225
282.22 0.235
282.22 0.235
282.23 0.25
282.23 0.25
282.24 0.26
282.24 0.295
282.24 0.285
282.25 0.305
282.25 0.325
282.26 0.35
282.26 0.345
282.26 0.36
282.27 0.365
282.27 0.39
282.28 0.405
282.28 0.425
282.28 0.46
282.29 0.47
282.29 0.5
282.3 0.51
282.3 0.53
282.3 0.55
282.31 0.57
282.31 0.575
282.32 0.6
282.32 0.625
282.32 0.645
282.33 0.665
282.33 0.7
282.34 0.695
282.34 0.72
282.34 0.715
282.35 0.725
282.35 0.735
282.36 0.745
282.36 0.755
282.36 0.77
282.37 0.775
282.37 0.78
282.38 0.755
282.38 0.77
282.38 0.755
282.39 0.72
282.39 0.72
282.4 0.73
282.4 0.71
282.4 0.66
282.41 0.645
282.41 0.585
282.42 0.56
282.42 0.525
282.42 0.47
282.43 0.42
282.43 0.37
282.44 0.315
282.44 0.275
282.44 0.23
282.45 0.18
282.45 0.11
282.46 0.055
282.46 0.03
282.46 -0.015
282.47 -0.045
282.47 -0.06
282.48 -0.08
282.48 -0.1
282.48 -0.12
282.49 -0.145
282.49 -0.175
282.5 -0.19
282.5 -0.19
282.5 -0.175
282.51 -0.18
282.51 -0.18
282.52 -0.17
282.52 -0.205
282.52 -0.2
282.53 -0.185
282.53 -0.18
282.54 -0.17
282.54 -0.16
282.54 -0.15
282.55 -0.16
282.55 -0.195
282.56 -0.18
282.56 -0.15
282.56 -0.165
282.57 -0.155
282.57 -0.16
282.58 -0.165
282.58 -0.175
282.58 -0.155
282.59 -0.155
282.59 -0.18
282.6 -0.175
282.6 -0.195
282.6 -0.18
282.61 -0.195
282.61 -0.165
282.62 -0.19
282.62 -0.19
282.62 -0.19
282.63 -0.21
282.63 -0.215
282.64 -0.2
282.64 -0.19
282.64 -0.22
282.65 -0.205
282.65 -0.21
282.66 -0.225
282.66 -0.23
282.66 -0.225
282.67 -0.24
282.67 -0.24
282.68 -0.24
282.68 -0.25
282.68 -0.23
282.69 -0.24
282.69 -0.24
282.7 -0.23
282.7 -0.23
282.7 -0.25
282.71 -0.23
282.71 -0.225
282.72 -0.195
282.72 -0.18
282.72 -0.165
282.73 -0.155
282.73 -0.16
282.74 -0.115
282.74 -0.13
282.74 -0.12
282.75 -0.145
282.75 -0.16
282.76 -0.17
282.76 -0.16
282.76 -0.205
282.77 -0.225
282.77 -0.24
282.78 -0.245
282.78 -0.26
282.78 -0.275
282.79 -0.275
282.79 -0.29
282.8 -0.3
282.8 -0.3
282.8 -0.285
282.81 -0.29
282.81 -0.3
282.82 -0.285
282.82 -0.285
282.82 -0.295
282.83 -0.295
282.83 -0.31
282.84 -0.29
282.84 -0.275
282.84 -0.285
282.85 -0.28
282.85 -0.29
282.86 -0.29
282.86 -0.3
282.86 -0.29
282.87 -0.295
282.87 -0.295
282.88 -0.305
282.88 -0.3
282.88 -0.3
282.89 -0.295
282.89 -0.305
282.9 -0.29
282.9 -0.285
282.9 -0.305
282.91 -0.295
282.91 -0.3
282.92 -0.315
282.92 -0.32
282.92 -0.335
282.93 -0.355
282.93 -0.34
282.94 -0.34
282.94 -0.46
282.94 -0.85
282.95 -1.49
282.95 -2.13
282.96 -2.765
282.96 -3.035
282.96 -3.145
282.97 -3.215
282.97 -3.235
282.98 -3.25
282.98 -3.23
282.98 -3.215
282.99 -3.08
282.99 -2.925
283 -2.735
283 -2.61
283 -2.525
283.01 -2.43
283.01 -2.24
283.02 -1.98
283.02 -1.645
283.02 -1.32
283.03 -1.04
283.03 -0.825
283.04 -0.685
283.04 -0.575
283.04 -0.45
283.05 -0.28
283.05 -0.145
283.06 -0.01
283.06 0.085
283.06 0.09
283.07 0.085
283.07 0.09
283.08 0.115
283.08 0.09
283.08 0.115
283.09 0.135
283.09 0.145
283.1 0.18
283.1 0.17
283.1 0.16
283.11 0.175
283.11 0.19
283.12 0.19
283.12 0.18
283.12 0.21
283.13 0.235
283.13 0.23
283.14 0.24
283.14 0.265
283.14 0.265
283.15 0.275
283.15 0.285
283.16 0.305
283.16 0.31
283.16 0.325
283.17 0.335
283.17 0.35
283.18 0.37
283.18 0.375
283.18 0.38
283.19 0.41
283.19 0.425
283.2 0.435
283.2 0.465
283.2 0.47
283.21 0.48
283.21 0.495
283.22 0.53
283.22 0.545
283.22 0.55
283.23 0.57
283.23 0.61
283.24 0.635
283.24 0.655
283.24 0.655
283.25 0.67
283.25 0.685
283.26 0.695
283.26 0.73
283.26 0.725
283.27 0.76
283.27 0.765
283.28 0.745
283.28 0.775
283.28 0.785
283.29 0.76
283.29 0.755
283.3 0.765
283.3 0.76
283.3 0.75
283.31 0.755
283.31 0.75
283.32 0.73
283.32 0.695
283.32 0.675
283.33 0.65
283.33 0.585
283.34 0.56
283.34 0.535
283.34 0.49
283.35 0.47
283.35 0.425
283.36 0.345
283.36 0.315
283.36 0.245
283.37 0.215
283.37 0.145
283.38 0.125
283.38 0.075
283.38 0.035
283.39 0.005
283.39 -0.01
283.4 -0.04
283.4 -0.06
283.4 -0.085
283.41 -0.115
283.41 -0.13
283.42 -0.12
283.42 -0.13
283.42 -0.145
283.43 -0.145
283.43 -0.145
283.44 -0.16
283.44 -0.175
283.44 -0.16
283.45 -0.14
283.45 -0.15
283.46 -0.16
283.46 -0.15
283.46 -0.16
283.47 -0.16
283.47 -0.16
283.48 -0.16
283.48 -0.165
283.48 -0.145
283.49 -0.15
283.49 -0.165
283.5 -0.145
283.5 -0.16
283.5 -0.18
283.51 -0.175
283.51 -0.17
283.52 -0.18
283.52 -0.19
283.52 -0.19
283.53 -0.195
283.53 -0.19
283.54 -0.185
283.54 -0.2
283.54 -0.23
283.55 -0.235
283.55 -0.21
283.56 -0.23
283.56 -0.24
283.56 -0.23
283.57 -0.23
283.57 -0.255
283.58 -0.23
283.58 -0.26
283.58 -0.265
283.59 -0.25
283.59 -0.255
283.6 -0.26
283.6 -0.255
283.6 -0.25
283.61 -0.27
283.61 -0.25
283.62 -0.26
283.62 -0.28
283.62 -0.28
283.63 -0.28
283.63 -0.25
283.64 -0.26
283.64 -0.235
283.64 -0.215
283.65 -0.195
283.65 -0.19
283.66 -0.2
283.66 -0.18
283.66 -0.16
283.67 -0.155
283.67 -0.145
283.68 -0.135
283.68 -0.15
283.68 -0.16
283.69 -0.17
283.69 -0.17
283.7 -0.215
283.7 -0.255
283.7 -0.26
283.71 -0.26
283.71 -0.26
283.72 -0.285
283.72 -0.305
283.72 -0.3
283.73 -0.33
283.73 -0.33
283.74 -0.33
283.74 -0.32
283.74 -0.305
283.75 -0.295
283.75 -0.305
283.76 -0.315
283.76 -0.325
283.76 -0.31
283.77 -0.315
283.77 -0.32
283.78 -0.32
283.78 -0.285
283.78 -0.32
283.79 -0.33
283.79 -0.3
283.8 -0.3
283.8 -0.33
283.8 -0.31
283.81 -0.305
283.81 -0.3
283.82 -0.31
283.82 -0.305
283.82 -0.305
283.83 -0.3
283.83 -0.29
283.84 -0.3
283.84 -0.3
283.84 -0.3
283.85 -0.315
283.85 -0.33
283.86 -0.34
283.86 -0.315
283.86 -0.265
283.87 -0.245
283.87 -0.42
283.88 -0.96
283.88 -1.6
283.88 -2.24
283.89 -2.88
283.89 -3.195
283.9 -3.305
283.9 -3.345
283.9 -3.38
283.91 -3.405
283.91 -3.4
283.92 -3.33
283.92 -3.16
283.92 -2.96
283.93 -2.77
283.93 -2.665
283.94 -2.575
283.94 -2.455
283.94 -2.205
283.95 -1.855
283.95 -1.465
283.96 -1.135
283.96 -0.9
283.96 -0.73
283.97 -0.6
283.97 -0.46
283.98 -0.24
283.98 -0.06
283.98 0.055
283.99 0.12
283.99 0.145
284 0.145
284 0.15
284 0.155
284.01 0.175
284.01 0.18
284.02 0.185
284.02 0.2
284.02 0.185
284.03 0.21
284.03 0.23
284.04 0.225
284.04 0.245
284.04 0.25
284.05 0.24
284.05 0.245
284.06 0.27
284.06 0.27
284.06 0.275
284.07 0.275
284.07 0.3
284.08 0.315
284.08 0.305
284.08 0.345
284.09 0.355
284.09 0.36
284.1 0.375
284.1 0.375
284.1 0.4
284.11 0.405
284.11 0.415
284.12 0.435
284.12 0.455
284.12 0.48
284.13 0.485
284.13 0.48
284.14 0.52
284.14 0.545
284.14 0.575
284.15 0.58
284.15 0.62
284.16 0.635
284.16 0.625
284.16 0.67
284.17 0.685
284.17 0.695
284.18 0.71
284.18 0.735
284.18 0.79
284.19 0.785
284.19 0.79
284.2 0.805
284.2 0.825
284.2 0.825
284.21 0.825
284.21 0.835
284.22 0.82
284.22 0.835
284.22 0.86
284.23 0.855
284.23 0.855
284.24 0.82
284.24 0.795
284.24 0.79
284.25 0.785
284.25 0.77
284.26 0.735
284.26 0.7
284.26 0.665
284.27 0.605
284.27 0.575
284.28 0.52
284.28 0.465
284.28 0.415
284.29 0.375
284.29 0.305
284.3 0.27
284.3 0.215
284.3 0.155
284.31 0.115
284.31 0.085
284.32 0.05
284.32 0.005
284.32 -0.01
284.33 -0.02
284.33 -0.065
284.34 -0.085
284.34 -0.08
284.34 -0.095
284.35 -0.11
284.35 -0.11
284.36 -0.12
284.36 -0.125
284.36 -0.11
284.37 -0.135
284.37 -0.125
284.38 -0.12
284.38 -0.125
284.38 -0.135
284.39 -0.125
284.39 -0.11
284.4 -0.08
284.4 -0.06
284.4 -0.015
284.41 0.025
284.41 0.04
284.42 0.065
284.42 0.115
284.42 0.17
284.43 0.21
284.43 0.24
284.44 0.3
284.44 0.355
284.44 0.4
284.45 0.455
284.45 0.515
284.46 0.58
284.46 0.625
284.46 0.66
284.47 0.68
284.47 0.705
284.48 0.675
284.48 0.635
284.48 0.58
284.49 0.51
284.49 0.42
284.5 0.35
284.5 0.29
284.5 0.25
284.51 0.19
284.51 0.15
284.52 0.125
284.52 0.13
284.52 0.185
284.53 0.245
284.53 0.275
284.54 0.245
284.54 0.17
284.54 0.065
284.55 -0.065
284.55 -0.26
284.56 -0.56
284.56 -0.83
284.56 -1.005
284.57 -1.04
284.57 -0.94
284.58 -0.745
284.58 -0.555
284.58 -0.43
284.59 -0.4
284.59 -0.39
284.6 -0.41
284.6 -0.46
284.6 -0.47
284.61 -0.48
284.61 -0.505
284.62 -0.49
284.62 -0.46
284.62 -0.43
284.63 -0.435
284.63 -0.43
284.64 -0.445
284.64 -0.435
284.64 -0.435
284.65 -0.425
284.65 -0.42
284.66 -0.415
284.66 -0.395
284.66 -0.405
284.67 -0.415
284.67 -0.42
284.68 -0.42
284.68 -0.43
284.68 -0.425
284.69 -0.43
284.69 -0.445
284.7 -0.445
284.7 -0.42
284.7 -0.445
284.71 -0.445
284.71 -0.465
284.72 -0.48
284.72 -0.45
284.72 -0.44
284.73 -0.44
284.73 -0.445
284.74 -0.425
284.74 -0.44
284.74 -0.43
284.75 -0.435
284.75 -0.415
284.76 -0.425
284.76 -0.42
284.76 -0.415
284.77 -0.4
284.77 -0.385
284.78 -0.38
284.78 -0.375
284.78 -0.355
284.79 -0.35
284.79 -0.325
284.8 -0.295
284.8 -0.27
284.8 -0.245
284.81 -0.255
284.81 -0.225
284.82 -0.195
284.82 -0.18
284.82 -0.155
284.83 -0.13
284.83 -0.095
284.84 -0.065
284.84 -0.06
284.84 -0.025
284.85 -0.03
284.85 -0.01
284.86 -0.02
284.86 0.02
284.86 0.03
284.87 0.045
284.87 0.075
284.88 0.075
284.88 0.115
284.88 0.105
284.89 0.12
284.89 0.105
284.9 0.085
284.9 0.1
284.9 0.075
284.91 0.055
284.91 0.08
284.92 0.045
284.92 0.02
284.92 -0.01
284.93 -0.015
284.93 -0.055
284.94 -0.065
284.94 -0.085
284.94 -0.105
284.95 -0.115
284.95 -0.15
284.96 -0.15
284.96 -0.16
284.96 -0.175
284.97 -0.185
284.97 -0.195
284.98 -0.195
284.98 -0.215
284.98 -0.195
284.99 -0.22
284.99 -0.205
285 -0.235
285 -0.225
285 -0.245
285.01 -0.255
285.01 -0.25
285.02 -0.26
285.02 -0.215
285.02 -0.25
285.03 -0.235
285.03 -0.24
285.04 -0.255
285.04 -0.255
285.04 -0.255
285.05 -0.26
285.05 -0.265
285.06 -0.265
285.06 -0.265
285.06 -0.255
285.07 -0.265
285.07 -0.265
285.08 -0.24
285.08 -0.255
285.08 -0.275
285.09 -0.27
285.09 -0.27
285.1 -0.285
285.1 -0.29
285.1 -0.27
285.11 -0.265
285.11 -0.29
285.12 -0.27
285.12 -0.295
285.12 -0.31
285.13 -0.285
285.13 -0.285
285.14 -0.285
285.14 -0.265
285.14 -0.28
285.15 -0.29
285.15 -0.275
285.16 -0.275
285.16 -0.285
285.16 -0.275
285.17 -0.265
285.17 -0.27
285.18 -0.27
285.18 -0.27
285.18 -0.285
285.19 -0.295
285.19 -0.29
285.2 -0.275
285.2 -0.28
285.2 -0.28
285.21 -0.26
285.21 -0.26
285.22 -0.25
285.22 -0.275
285.22 -0.25
285.23 -0.275
285.23 -0.26
285.24 -0.245
285.24 -0.26
285.24 -0.255
285.25 -0.265
285.25 -0.27
285.26 -0.27
285.26 -0.275
285.26 -0.28
285.27 -0.275
285.27 -0.255
285.28 -0.265
285.28 -0.265
285.28 -0.27
285.29 -0.255
285.29 -0.29
285.3 -0.285
285.3 -0.28
285.3 -0.3
285.31 -0.29
285.31 -0.275
285.32 -0.27
285.32 -0.29
285.32 -0.26
285.33 -0.28
285.33 -0.28
285.34 -0.29
285.34 -0.285
285.34 -0.305
285.35 -0.295
285.35 -0.305
285.36 -0.305
285.36 -0.275
285.36 -0.28
285.37 -0.275
285.37 -0.285
285.38 -0.305
285.38 -0.285
285.38 -0.3
285.39 -0.285
285.39 -0.3
285.4 -0.285
285.4 -0.31
285.4 -0.295
285.41 -0.3
285.41 -0.295
285.42 -0.31
285.42 -0.315
285.42 -0.29
285.43 -0.305
285.43 -0.295
285.44 -0.295
285.44 -0.315
285.44 -0.31
285.45 -0.295
285.45 -0.315
285.46 -0.28
285.46 -0.29
285.46 -0.26
285.47 -0.265
285.47 -0.225
285.48 -0.22
285.48 -0.205
285.48 -0.21
285.49 -0.17
285.49 -0.16
285.5 -0.175
285.5 -0.175
285.5 -0.185
285.51 -0.185
285.51 -0.185
285.52 -0.225
285.52 -0.245
285.52 -0.285
285.53 -0.29
285.53 -0.285
285.54 -0.295
285.54 -0.315
285.54 -0.315
285.55 -0.34
285.55 -0.345
285.56 -0.35
285.56 -0.365
285.56 -0.365
285.57 -0.35
285.57 -0.35
285.58 -0.35
285.58 -0.32
285.58 -0.345
285.59 -0.355
285.59 -0.375
285.6 -0.355
285.6 -0.365
285.6 -0.355
285.61 -0.36
285.61 -0.36
285.62 -0.365
285.62 -0.34
285.62 -0.335
285.63 -0.35
285.63 -0.375
285.64 -0.35
285.64 -0.345
285.64 -0.34
285.65 -0.345
285.65 -0.32
285.66 -0.35
285.66 -0.34
285.66 -0.355
285.67 -0.37
285.67 -0.38
285.68 -0.38
285.68 -0.345
285.68 -0.285
285.69 -0.27
285.69 -0.545
285.7 -1.175
285.7 -1.815
285.7 -2.455
285.71 -3.095
285.71 -3.35
285.72 -3.43
285.72 -3.505
285.72 -3.53
285.73 -3.54
285.73 -3.525
285.74 -3.45
285.74 -3.3
285.74 -3.11
285.75 -2.97
285.75 -2.885
285.76 -2.8
285.76 -2.655
285.76 -2.37
285.77 -2
285.77 -1.61
285.78 -1.235
285.78 -0.995
285.78 -0.805
285.79 -0.675
285.79 -0.5
285.8 -0.3
285.8 -0.135
285.8 0
285.81 0.065
285.81 0.1
285.82 0.055
285.82 0.085
285.82 0.12
285.83 0.11
285.83 0.12
285.84 0.14
285.84 0.155
285.84 0.145
285.85 0.155
285.85 0.16
285.86 0.145
285.86 0.155
285.86 0.18
285.87 0.2
285.87 0.19
285.88 0.21
285.88 0.225
285.88 0.22
285.89 0.24
285.89 0.245
285.9 0.27
285.9 0.26
285.9 0.27
285.91 0.275
285.91 0.315
285.92 0.315
285.92 0.32
285.92 0.315
285.93 0.34
285.93 0.35
285.94 0.375
285.94 0.38
285.94 0.405
285.95 0.41
285.95 0.415
285.96 0.45
285.96 0.45
285.96 0.5
285.97 0.51
285.97 0.55
285.98 0.535
285.98 0.565
285.98 0.615
285.99 0.615
285.99 0.635
286 0.645
286 0.66
286 0.685
286.01 0.695
286.01 0.72
286.02 0.74
286.02 0.755
286.02 0.77
286.03 0.755
286.03 0.76
286.04 0.775
286.04 0.785
286.04 0.785
286.05 0.8
286.05 0.79
286.06 0.77
286.06 0.785
286.06 0.775
286.07 0.75
286.07 0.735
286.08 0.735
286.08 0.72
286.08 0.685
286.09 0.66
286.09 0.65
286.1 0.615
286.1 0.565
286.1 0.51
286.11 0.48
286.11 0.415
286.12 0.375
286.12 0.345
286.12 0.295
286.13 0.235
286.13 0.19
286.14 0.165
286.14 0.12
286.14 0.085
286.15 0.05
286.15 0.015
286.16 -0.025
286.16 -0.025
286.16 -0.05
286.17 -0.06
286.17 -0.04
286.18 -0.08
286.18 -0.095
286.18 -0.095
286.19 -0.09
286.19 -0.1
286.2 -0.105
286.2 -0.095
286.2 -0.1
286.21 -0.085
286.21 -0.07
286.22 -0.1
286.22 -0.095
286.22 -0.08
286.23 -0.08
286.23 -0.075
286.24 -0.085
286.24 -0.06
286.24 -0.085
286.25 -0.08
286.25 -0.09
286.26 -0.09
286.26 -0.12
286.26 -0.09
286.27 -0.095
286.27 -0.115
286.28 -0.12
286.28 -0.105
286.28 -0.14
286.29 -0.145
286.29 -0.17
286.3 -0.17
286.3 -0.16
286.3 -0.16
286.31 -0.17
286.31 -0.175
286.32 -0.185
286.32 -0.195
286.32 -0.21
286.33 -0.22
286.33 -0.215
286.34 -0.22
286.34 -0.23
286.34 -0.225
286.35 -0.235
286.35 -0.23
286.36 -0.255
286.36 -0.24
286.36 -0.265
286.37 -0.25
286.37 -0.245
286.38 -0.24
286.38 -0.255
286.38 -0.245
286.39 -0.26
286.39 -0.255
286.4 -0.26
286.4 -0.245
286.4 -0.23
286.41 -0.2
286.41 -0.185
286.42 -0.175
286.42 -0.14
286.42 -0.13
286.43 -0.11
286.43 -0.13
286.44 -0.12
286.44 -0.1
286.44 -0.12
286.45 -0.15
286.45 -0.12
286.46 -0.175
286.46 -0.21
286.46 -0.235
286.47 -0.265
286.47 -0.26
286.48 -0.265
286.48 -0.285
286.48 -0.295
286.49 -0.305
286.49 -0.31
286.5 -0.315
286.5 -0.33
286.5 -0.31
286.51 -0.31
286.51 -0.295
286.52 -0.305
286.52 -0.305
286.52 -0.31
286.53 -0.305
286.53 -0.31
286.54 -0.3
286.54 -0.31
286.54 -0.31
286.55 -0.305
286.55 -0.305
286.56 -0.31
286.56 -0.32
286.56 -0.3
286.57 -0.33
286.57 -0.315
286.58 -0.315
286.58 -0.315
286.58 -0.305
286.59 -0.295
286.59 -0.305
286.6 -0.295
286.6 -0.285
286.6 -0.265
286.61 -0.295
286.61 -0.33
286.62 -0.295
286.62 -0.31
286.62 -0.255
286.63 -0.19
286.63 -0.26
286.64 -0.665
286.64 -1.305
286.64 -1.945
286.65 -2.585
286.65 -3.225
286.66 -3.43
286.66 -3.525
286.66 -3.535
286.67 -3.565
286.67 -3.575
286.68 -3.55
286.68 -3.46
286.68 -3.34
286.69 -3.155
286.69 -2.995
286.7 -2.895
286.7 -2.815
286.7 -2.66
286.71 -2.31
286.71 -1.895
286.72 -1.47
286.72 -1.115
286.72 -0.895
286.73 -0.73
286.73 -0.59
286.74 -0.375
286.74 -0.2
286.74 -0.02
286.75 0.115
286.75 0.165
286.76 0.17
286.76 0.15
286.76 0.15
286.77 0.185
286.77 0.205
286.78 0.195
286.78 0.215
286.78 0.225
286.79 0.23
286.79 0.24
286.8 0.26
286.8 0.25
286.8 0.265
286.81 0.265
286.81 0.275
286.82 0.31
286.82 0.31
286.82 0.31
286.83 0.34
286.83 0.35
286.84 0.35
286.84 0.365
286.84 0.37
286.85 0.375
286.85 0.415
286.86 0.42
286.86 0.44
286.86 0.465
286.87 0.465
286.87 0.485
286.88 0.485
286.88 0.51
286.88 0.54
286.89 0.57
286.89 0.56
286.9 0.575
286.9 0.605
286.9 0.63
286.91 0.67
286.91 0.665
286.92 0.685
286.92 0.735
286.92 0.75
286.93 0.78
286.93 0.81
286.94 0.83
286.94 0.85
286.94 0.87
286.95 0.89
286.95 0.885
286.96 0.91
286.96 0.935
286.96 0.935
286.97 0.95
286.97 0.955
286.98 1
286.98 0.97
286.98 0.965
286.99 0.975
286.99 0.99
287 0.98
287 0.965
287 0.975
287.01 0.93
287.01 0.925
287.02 0.89
287.02 0.845
287.02 0.81
287.03 0.795
287.03 0.77
287.04 0.7
287.04 0.69
287.04 0.615
287.05 0.57
287.05 0.53
287.06 0.455
287.06 0.39
287.06 0.34
287.07 0.275
287.07 0.25
287.08 0.195
287.08 0.17
287.08 0.13
287.09 0.07
287.09 0.05
287.1 0.035
287.1 0.01
287.1 0
287.11 -0.005
287.11 -0.015
287.12 -0.025
287.12 -0.045
287.12 -0.055
287.13 -0.02
287.13 -0.04
287.14 -0.025
287.14 -0.045
287.14 -0.035
287.15 -0.03
287.15 -0.04
287.16 -0.035
287.16 -0.035
287.16 -0.025
287.17 -0.045
287.17 -0.06
287.18 -0.045
287.18 -0.03
287.18 -0.05
287.19 -0.035
287.19 -0.04
287.2 -0.055
287.2 -0.04
287.2 -0.065
287.21 -0.07
287.21 -0.08
287.22 -0.06
287.22 -0.09
287.22 -0.08
287.23 -0.085
287.23 -0.1
287.24 -0.115
287.24 -0.11
287.24 -0.12
287.25 -0.1
287.25 -0.13
287.26 -0.135
287.26 -0.13
287.26 -0.135
287.27 -0.14
287.27 -0.15
287.28 -0.16
287.28 -0.18
287.28 -0.16
287.29 -0.155
287.29 -0.145
287.3 -0.15
287.3 -0.16
287.3 -0.16
287.31 -0.155
287.31 -0.175
287.32 -0.165
287.32 -0.15
287.32 -0.13
287.33 -0.09
287.33 -0.095
287.34 -0.075
287.34 -0.065
287.34 -0.055
287.35 -0.045
287.35 -0.045
287.36 -0.06
287.36 -0.045
287.36 -0.04
287.37 -0.04
287.37 -0.08
287.38 -0.115
287.38 -0.17
287.38 -0.175
287.39 -0.17
287.39 -0.18
287.4 -0.225
287.4 -0.225
287.4 -0.23
287.41 -0.235
287.41 -0.25
287.42 -0.245
287.42 -0.245
287.42 -0.225
287.43 -0.225
287.43 -0.22
287.44 -0.225
287.44 -0.225
287.44 -0.22
287.45 -0.2
287.45 -0.22
287.46 -0.23
287.46 -0.225
287.46 -0.235
287.47 -0.23
287.47 -0.21
287.48 -0.215
287.48 -0.23
287.48 -0.2
287.49 -0.235
287.49 -0.255
287.5 -0.23
287.5 -0.235
287.5 -0.215
287.51 -0.22
287.51 -0.215
287.52 -0.215
287.52 -0.215
287.52 -0.24
287.53 -0.265
287.53 -0.26
287.54 -0.265
287.54 -0.235
287.54 -0.185
287.55 -0.175
287.55 -0.425
287.56 -1.025
287.56 -1.665
287.56 -2.305
287.57 -2.945
287.57 -3.48
287.58 -3.605
287.58 -3.655
287.58 -3.72
287.59 -3.715
287.59 -3.69
287.6 -3.605
287.6 -3.44
287.6 -3.19
287.61 -2.99
287.61 -2.88
287.62 -2.74
287.62 -2.585
287.62 -2.295
287.63 -1.9
287.63 -1.525
287.64 -1.185
287.64 -0.935
287.64 -0.765
287.65 -0.58
287.65 -0.435
287.66 -0.225
287.66 -0.03
287.66 0.105
287.67 0.18
287.67 0.2
287.68 0.18
287.68 0.18
287.68 0.21
287.69 0.225
287.69 0.245
287.7 0.235
287.7 0.245
287.7 0.25
287.71 0.275
287.71 0.275
287.72 0.25
287.72 0.275
287.72 0.28
287.73 0.305
287.73 0.285
287.74 0.31
287.74 0.335
287.74 0.305
287.75 0.335
287.75 0.345
287.76 0.355
287.76 0.355
287.76 0.385
287.77 0.415
287.77 0.42
287.78 0.425
287.78 0.435
287.78 0.455
287.79 0.465
287.79 0.47
287.8 0.5
287.8 0.525
287.8 0.55
287.81 0.56
287.81 0.585
287.82 0.605
287.82 0.61
287.82 0.65
287.83 0.665
287.83 0.675
287.84 0.7
287.84 0.725
287.84 0.745
287.85 0.795
287.85 0.795
287.86 0.82
287.86 0.835
287.86 0.865
287.87 0.875
287.87 0.885
287.88 0.915
287.88 0.925
287.88 0.945
287.89 0.94
287.89 0.93
287.9 0.935
287.9 0.95
287.9 0.965
287.91 0.94
287.91 0.965
287.92 0.955
287.92 0.925
287.92 0.915
287.93 0.88
287.93 0.86
287.94 0.845
287.94 0.81
287.94 0.755
287.95 0.745
287.95 0.7
287.96 0.645
287.96 0.595
287.96 0.525
287.97 0.47
287.97 0.415
287.98 0.365
287.98 0.31
287.98 0.265
287.99 0.23
287.99 0.19
288 0.14
288 0.1
288 0.07
288.01 0.05
288.01 0.03
288.02 0
288.02 0
288.02 -0.01
288.03 -0.03
288.03 -0.035
288.04 -0.055
288.04 -0.045
288.04 -0.05
288.05 -0.03
288.05 -0.025
288.06 -0.015
288.06 -0.015
288.06 -0.035
288.07 -0.015
288.07 -0.01
288.08 -0.01
288.08 -0.01
288.08 -0.015
288.09 0.015
288.09 -0.005
288.1 -0.015
288.1 0
288.1 -0.02
288.11 0
288.11 -0.03
288.12 -0.035
288.12 -0.06
288.12 -0.04
288.13 -0.05
288.13 -0.035
288.14 -0.03
288.14 -0.055
288.14 -0.06
288.15 -0.07
288.15 -0.07
288.16 -0.08
288.16 -0.085
288.16 -0.09
288.17 -0.085
288.17 -0.105
288.18 -0.095
288.18 -0.115
288.18 -0.11
288.19 -0.105
288.19 -0.115
288.2 -0.11
288.2 -0.12
288.2 -0.125
288.21 -0.125
288.21 -0.115
288.22 -0.125
288.22 -0.105
288.22 -0.12
288.23 -0.11
288.23 -0.095
288.24 -0.075
288.24 -0.05
288.24 -0.045
288.25 -0.02
288.25 -0.02
288.26 -0.02
288.26 -0.015
288.26 -0.01
288.27 -0.015
288.27 -0.015
288.28 -0.02
288.28 -0.06
288.28 -0.065
288.29 -0.09
288.29 -0.14
288.3 -0.15
288.3 -0.14
288.3 -0.16
288.31 -0.165
288.31 -0.175
288.32 -0.175
288.32 -0.2
288.32 -0.22
288.33 -0.21
288.33 -0.195
288.34 -0.17
288.34 -0.175
288.34 -0.19
288.35 -0.185
288.35 -0.18
288.36 -0.19
288.36 -0.215
288.36 -0.19
288.37 -0.185
288.37 -0.195
288.38 -0.195
288.38 -0.19
288.38 -0.2
288.39 -0.19
288.39 -0.185
288.4 -0.17
288.4 -0.18
288.4 -0.195
288.41 -0.2
288.41 -0.175
288.42 -0.17
288.42 -0.175
288.42 -0.165
288.43 -0.185
288.43 -0.195
288.44 -0.195
288.44 -0.21
288.44 -0.215
288.45 -0.185
288.45 -0.13
288.46 -0.13
288.46 -0.375
288.46 -0.93
288.47 -1.57
288.47 -2.21
288.48 -2.85
288.48 -3.12
288.48 -3.2
288.49 -3.235
288.49 -3.25
288.5 -3.295
288.5 -3.275
288.5 -3.24
288.51 -3.09
288.51 -2.925
288.52 -2.755
288.52 -2.64
288.52 -2.57
288.53 -2.445
288.53 -2.21
288.54 -1.875
288.54 -1.49
288.54 -1.115
288.55 -0.87
288.55 -0.705
288.56 -0.575
288.56 -0.44
288.56 -0.285
288.57 -0.095
288.57 0.05
288.58 0.145
288.58 0.195
288.58 0.175
288.59 0.19
288.59 0.17
288.6 0.175
288.6 0.205
288.6 0.22
288.61 0.24
288.61 0.23
288.62 0.26
288.62 0.26
288.62 0.27
288.63 0.255
288.63 0.27
288.64 0.285
288.64 0.285
288.64 0.305
288.65 0.325
288.65 0.32
288.66 0.3
288.66 0.315
288.66 0.33
288.67 0.335
288.67 0.365
288.68 0.38
288.68 0.375
288.68 0.39
288.69 0.415
288.69 0.415
288.7 0.395
288.7 0.44
288.7 0.455
288.71 0.465
288.71 0.495
288.72 0.52
288.72 0.53
288.72 0.535
288.73 0.58
288.73 0.57
288.74 0.595
288.74 0.615
288.74 0.63
288.75 0.66
288.75 0.675
288.76 0.695
288.76 0.71
288.76 0.74
288.77 0.735
288.77 0.76
288.78 0.775
288.78 0.775
288.78 0.795
288.79 0.82
288.79 0.8
288.8 0.82
288.8 0.82
288.8 0.84
288.81 0.825
288.81 0.84
288.82 0.86
288.82 0.84
288.82 0.835
288.83 0.805
288.83 0.775
288.84 0.755
288.84 0.745
288.84 0.725
288.85 0.69
288.85 0.665
288.86 0.61
288.86 0.565
288.86 0.545
288.87 0.47
288.87 0.43
288.88 0.39
288.88 0.345
288.88 0.29
288.89 0.25
288.89 0.185
288.9 0.16
288.9 0.125
288.9 0.105
288.91 0.055
288.91 0.02
288.92 0.005
288.92 0
288.92 -0.015
288.93 -0.03
288.93 -0.035
288.94 -0.05
288.94 -0.035
288.94 -0.085
288.95 -0.065
288.95 -0.07
288.96 -0.04
288.96 -0.06
288.96 -0.05
288.97 -0.05
288.97 -0.065
288.98 -0.06
288.98 -0.055
288.98 -0.04
288.99 -0.06
288.99 -0.04
289 -0.035
289 -0.025
289 -0.05
289.01 -0.025
289.01 -0.045
289.02 -0.055
289.02 -0.03
289.02 -0.05
289.03 -0.06
289.03 -0.04
289.04 -0.07
289.04 -0.05
289.04 -0.05
289.05 -0.05
289.05 -0.08
289.06 -0.055
289.06 -0.09
289.06 -0.08
289.07 -0.07
289.07 -0.1
289.08 -0.09
289.08 -0.095
289.08 -0.11
289.09 -0.105
289.09 -0.095
289.1 -0.105
289.1 -0.12
289.1 -0.105
289.11 -0.115
289.11 -0.115
289.12 -0.095
289.12 -0.12
289.12 -0.105
289.13 -0.115
289.13 -0.115
289.14 -0.105
289.14 -0.08
289.14 -0.08
289.15 -0.065
289.15 -0.06
289.16 -0.05
289.16 -0.03
289.16 -0.025
289.17 -0.025
289.17 -0.025
289.18 -0.055
289.18 -0.045
289.18 -0.035
289.19 -0.06
289.19 -0.08
289.2 -0.1
289.2 -0.13
289.2 -0.14
289.21 -0.135
289.21 -0.135
289.22 -0.145
289.22 -0.16
289.22 -0.175
289.23 -0.18
289.23 -0.18
289.24 -0.175
289.24 -0.175
289.24 -0.185
289.25 -0.175
289.25 -0.165
289.26 -0.18
289.26 -0.18
289.26 -0.185
289.27 -0.17
289.27 -0.17
289.28 -0.16
289.28 -0.185
289.28 -0.19
289.29 -0.185
289.29 -0.195
289.3 -0.195
289.3 -0.165
289.3 -0.19
289.31 -0.19
289.31 -0.2
289.32 -0.175
289.32 -0.19
289.32 -0.17
289.33 -0.17
289.33 -0.16
289.34 -0.21
289.34 -0.165
289.34 -0.195
289.35 -0.195
289.35 -0.18
289.36 -0.165
289.36 -0.1
289.36 -0.12
289.37 -0.435
289.37 -1.055
289.38 -1.695
289.38 -2.17
289.38 -2.405
289.39 -2.52
289.39 -2.57
289.4 -2.6
289.4 -2.595
289.4 -2.605
289.41 -2.57
289.41 -2.485
289.42 -2.365
289.42 -2.21
289.42 -2.1
289.43 -2.04
289.43 -1.98
289.44 -1.85
289.44 -1.615
289.44 -1.35
289.45 -1.035
289.45 -0.785
289.46 -0.61
289.46 -0.525
289.46 -0.4
289.47 -0.28
289.47 -0.15
289.48 0.005
289.48 0.1
289.48 0.145
289.49 0.155
289.49 0.135
289.5 0.14
289.5 0.155
289.5 0.14
289.51 0.155
289.51 0.17
289.52 0.185
289.52 0.17
289.52 0.18
289.53 0.175
289.53 0.175
289.54 0.2
289.54 0.19
289.54 0.215
289.55 0.205
289.55 0.205
289.56 0.23
289.56 0.225
289.56 0.205
289.57 0.23
289.57 0.245
289.58 0.255
289.58 0.28
289.58 0.295
289.59 0.28
289.59 0.295
289.6 0.305
289.6 0.315
289.6 0.325
289.61 0.345
289.61 0.35
289.62 0.37
289.62 0.39
289.62 0.39
289.63 0.415
289.63 0.44
289.64 0.47
289.64 0.48
289.64 0.465
289.65 0.5
289.65 0.52
289.66 0.545
289.66 0.565
289.66 0.59
289.67 0.6
289.67 0.61
289.68 0.625
289.68 0.645
289.68 0.66
289.69 0.655
289.69 0.675
289.7 0.685
289.7 0.7
289.7 0.705
289.71 0.71
289.71 0.715
289.72 0.715
289.72 0.69
289.72 0.715
289.73 0.705
289.73 0.735
289.74 0.715
289.74 0.68
289.74 0.66
289.75 0.65
289.75 0.61
289.76 0.59
289.76 0.54
289.76 0.505
289.77 0.47
289.77 0.455
289.78 0.4
289.78 0.35
289.78 0.3
289.79 0.285
289.79 0.225
289.8 0.195
289.8 0.155
289.8 0.11
289.81 0.1
289.81 0.055
289.82 0.025
289.82 0.01
289.82 0
289.83 -0.04
289.83 -0.035
289.84 -0.045
289.84 -0.05
289.84 -0.055
289.85 -0.03
289.85 -0.05
289.86 -0.075
289.86 -0.075
289.86 -0.06
289.87 -0.055
289.87 -0.065
289.88 -0.04
289.88 -0.045
289.88 -0.05
289.89 -0.05
289.89 -0.025
289.9 -0.04
289.9 -0.04
289.9 -0.035
289.91 -0.02
289.91 -0.02
289.92 -0.015
289.92 -0.02
289.92 -0.03
289.93 -0.035
289.93 -0.035
289.94 -0.045
289.94 -0.025
289.94 -0.015
289.95 -0.025
289.95 -0.045
289.96 -0.03
289.96 -0.045
289.96 -0.05
289.97 -0.06
289.97 -0.08
289.98 -0.08
289.98 -0.06
289.98 -0.07
289.99 -0.045
289.99 -0.07
290 -0.06
290 -0.07
