3750 2
240,0.135
240,0.135
240.01,0.135
240.01,0.13
240.02,0.13
240.02,0.13
240.02,0.13
240.03,0.13
240.03,0.13
240.04,0.13
240.04,0.13
240.04,0.13
240.05,0.13
240.05,0.13
240.06,0.13
240.06,0.13
240.06,0.13
240.07,0.13
240.07,0.13
240.08,0.13
240.08,0.13
240.08,0.125
240.09,0.125
240.09,0.13
240.1,0.14
240.1,0.15
240.1,0.18
240.11,0.2
240.11,0.215
240.12,0.215
240.12,0.22
240.12,0.24
240.13,0.265
240.13,0.28
240.14,0.285
240.14,0.265
240.14,0.23
240.15,0.2
240.15,0.19
240.16,0.175
240.16,0.16
240.16,0.145
240.17,0.145
240.17,0.145
240.18,0.145
240.18,0.145
240.18,0.15
240.19,0.15
240.19,0.145
240.2,0.14
240.2,0.14
240.2,0.135
240.21,0.13
240.21,0.125
240.22,0.12
240.22,0.12
240.22,0.12
240.23,0.12
240.23,0.12
240.24,0.12
240.24,0.115
240.24,0.11
240.25,0.11
240.25,0.105
240.26,0.095
240.26,0.095
240.26,0.09
240.27,0.085
240.27,0.045
240.28,-0.035
240.28,-0.105
240.28,-0.12
240.29,-0.04
240.29,0.125
240.3,0.3
240.3,0.415
240.3,0.445
240.31,0.42
240.31,0.365
240.32,0.345
240.32,0.37
240.32,0.435
240.33,0.495
240.33,0.525
240.34,0.545
240.34,0.575
240.34,0.615
240.35,0.645
240.35,0.645
240.36,0.63
240.36,0.595
240.36,0.545
240.37,0.49
240.37,0.415
240.38,0.33
240.38,0.26
240.38,0.215
240.39,0.17
240.39,0.145
240.4,0.13
240.4,0.125
240.4,0.12
240.41,0.12
240.41,0.115
240.42,0.105
240.42,0.09
240.42,0.08
240.43,0.075
240.43,0.08
240.44,0.075
240.44,0.08
240.44,0.08
240.45,0.08
240.45,0.075
240.46,0.075
240.46,0.075
240.46,0.08
240.47,0.08
240.47,0.075
240.48,0.075
240.48,0.075
240.48,0.07
240.49,0.065
240.49,0.065
240.5,0.06
240.5,0.06
240.5,0.06
240.51,0.05
240.51,0.035
240.52,0.035
240.52,0.02
240.52,0.015
240.53,0.015
240.53,0.01
240.54,0
240.54,-0.005
240.54,-0.03
240.55,-0.035
240.55,-0.06
240.56,-0.065
240.56,-0.07
240.56,-0.07
240.57,-0.075
240.57,-0.085
240.58,-0.085
240.58,-0.09
240.58,-0.095
240.59,-0.095
240.59,-0.1
240.6,-0.105
240.6,-0.125
240.6,-0.135
240.61,-0.14
240.61,-0.125
240.62,-0.1
240.62,-0.08
240.62,-0.075
240.63,-0.075
240.63,-0.07
240.64,-0.06
240.64,-0.03
240.64,0.005
240.65,0.035
240.65,0.045
240.66,0.045
240.66,0.05
240.66,0.06
240.67,0.065
240.67,0.07
240.68,0.065
240.68,0.055
240.68,0.055
240.69,0.075
240.69,0.095
240.7,0.11
240.7,0.11
240.7,0.1
240.71,0.08
240.71,0.075
240.72,0.07
240.72,0.07
240.72,0.075
240.73,0.075
240.73,0.075
240.74,0.07
240.74,0.07
240.74,0.07
240.75,0.075
240.75,0.075
240.76,0.075
240.76,0.065
240.76,0.06
240.77,0.055
240.77,0.06
240.78,0.08
240.78,0.085
240.78,0.075
240.79,0.055
240.79,0.045
240.8,0.045
240.8,0.045
240.8,0.045
240.81,0.045
240.81,0.045
240.82,0.045
240.82,0.04
240.82,0.04
240.83,0.04
240.83,0.045
240.84,0.045
240.84,0.045
240.84,0.04
240.85,0.03
240.85,0.015
240.86,0.01
240.86,0.01
240.86,0.01
240.87,0.02
240.87,0.04
240.88,0.045
240.88,0.05
240.88,0.045
240.89,0.03
240.89,0.01
240.9,0.01
240.9,0.015
240.9,0.045
240.91,0.07
240.91,0.075
240.92,0.04
240.92,0.025
240.92,0.02
240.93,0.02
240.93,0.02
240.94,0.02
240.94,0.025
240.94,0.025
240.95,0.01
240.95,0
240.96,0
240.96,0
240.96,0
240.97,0.01
240.97,0.01
240.98,0.01
240.98,0.01
240.98,0.01
240.99,0.02
240.99,0.015
241,-0.01
241,-0.04
241,-0.05
241.01,-0.05
241.01,-0.05
241.02,-0.05
241.02,-0.045
241.02,-0.01
241.03,0.035
241.03,0.085
241.04,0.12
241.04,0.13
241.04,0.125
241.05,0.1
241.05,0.08
241.06,0.07
241.06,0.075
241.06,0.1
241.07,0.11
241.07,0.09
241.08,0.03
241.08,-0.005
241.08,-0.01
241.09,-0.015
241.09,-0.02
241.1,-0.045
241.1,-0.075
241.1,-0.085
241.11,-0.085
241.11,-0.065
241.12,-0.05
241.12,-0.035
241.12,-0.025
241.13,-0.02
241.13,-0.025
241.14,-0.065
241.14,-0.1
241.14,-0.11
241.15,-0.09
241.15,-0.055
241.16,-0.035
241.16,-0.04
241.16,-0.045
241.17,-0.045
241.17,-0.045
241.18,-0.05
241.18,-0.055
241.18,-0.06
241.19,-0.065
241.19,-0.06
241.2,-0.06
241.2,-0.12
241.2,-0.22
241.21,-0.27
241.21,-0.245
241.22,-0.125
241.22,0.03
241.22,0.15
241.23,0.19
241.23,0.17
241.24,0.145
241.24,0.16
241.24,0.23
241.25,0.3
241.25,0.33
241.26,0.34
241.26,0.35
241.26,0.37
241.27,0.415
241.27,0.46
241.28,0.48
241.28,0.475
241.28,0.44
241.29,0.395
241.29,0.355
241.3,0.3
241.3,0.225
241.3,0.13
241.31,0.04
241.31,-0.03
241.32,-0.08
241.32,-0.105
241.32,-0.11
241.33,-0.115
241.33,-0.12
241.34,-0.13
241.34,-0.135
241.34,-0.14
241.35,-0.135
241.35,-0.14
241.36,-0.145
241.36,-0.145
241.36,-0.145
241.37,-0.15
241.37,-0.15
241.38,-0.15
241.38,-0.155
241.38,-0.155
241.39,-0.155
241.39,-0.155
241.4,-0.15
241.4,-0.155
241.4,-0.155
241.41,-0.155
241.41,-0.165
241.42,-0.17
241.42,-0.175
241.42,-0.175
241.43,-0.175
241.43,-0.185
241.44,-0.185
241.44,-0.195
241.44,-0.195
241.45,-0.205
241.45,-0.215
241.46,-0.22
241.46,-0.225
241.46,-0.24
241.47,-0.26
241.47,-0.27
241.48,-0.28
241.48,-0.28
241.48,-0.285
241.49,-0.29
241.49,-0.3
241.5,-0.335
241.5,-0.35
241.5,-0.35
241.51,-0.36
241.51,-0.37
241.52,-0.38
241.52,-0.38
241.52,-0.385
241.53,-0.385
241.53,-0.385
241.54,-0.38
241.54,-0.37
241.54,-0.34
241.55,-0.315
241.55,-0.295
241.56,-0.285
241.56,-0.275
241.56,-0.27
241.57,-0.265
241.57,-0.24
241.58,-0.21
241.58,-0.195
241.58,-0.185
241.59,-0.185
241.59,-0.19
241.6,-0.19
241.6,-0.18
241.6,-0.175
241.61,-0.175
241.61,-0.175
241.62,-0.18
241.62,-0.18
241.62,-0.17
241.63,-0.17
241.63,-0.165
241.64,-0.17
241.64,-0.18
241.64,-0.175
241.65,-0.175
241.65,-0.175
241.66,-0.18
241.66,-0.18
241.66,-0.18
241.67,-0.175
241.67,-0.18
241.68,-0.175
241.68,-0.175
241.68,-0.17
241.69,-0.175
241.69,-0.175
241.7,-0.175
241.7,-0.17
241.7,-0.165
241.71,-0.175
241.71,-0.185
241.72,-0.19
241.72,-0.19
241.72,-0.185
241.73,-0.18
241.73,-0.195
241.74,-0.21
241.74,-0.215
241.74,-0.21
241.75,-0.215
241.75,-0.215
241.76,-0.21
241.76,-0.21
241.76,-0.195
241.77,-0.19
241.77,-0.19
241.78,-0.21
241.78,-0.23
241.78,-0.23
241.79,-0.225
241.79,-0.22
241.8,-0.22
241.8,-0.22
241.8,-0.22
241.81,-0.21
241.81,-0.2
241.82,-0.2
241.82,-0.205
241.82,-0.2
241.83,-0.2
241.83,-0.2
241.84,-0.205
241.84,-0.2
241.84,-0.18
241.85,-0.17
241.85,-0.17
241.86,-0.175
241.86,-0.185
241.86,-0.19
241.87,-0.205
241.87,-0.22
241.88,-0.22
241.88,-0.205
241.88,-0.165
241.89,-0.135
241.89,-0.135
241.9,-0.14
241.9,-0.13
241.9,-0.11
241.91,-0.085
241.91,-0.075
241.92,-0.065
241.92,-0.06
241.92,-0.065
241.93,-0.085
241.93,-0.1
241.94,-0.12
241.94,-0.135
241.94,-0.14
241.95,-0.15
241.95,-0.155
241.96,-0.155
241.96,-0.155
241.96,-0.155
241.97,-0.165
241.97,-0.205
241.98,-0.215
241.98,-0.225
241.98,-0.225
241.99,-0.225
241.99,-0.23
242,-0.23
242,-0.235
242,-0.22
242.01,-0.2
242.01,-0.205
242.02,-0.205
242.02,-0.205
242.02,-0.205
242.03,-0.205
242.03,-0.21
242.04,-0.21
242.04,-0.205
242.04,-0.2
242.05,-0.195
242.05,-0.18
242.06,-0.18
242.06,-0.195
242.06,-0.21
242.07,-0.205
242.07,-0.135
242.08,-0.055
242.08,0.005
242.08,0.035
242.09,0.04
242.09,0.03
242.1,0.03
242.1,0.075
242.1,0.15
242.11,0.215
242.11,0.235
242.12,0.235
242.12,0.255
242.12,0.3
242.13,0.33
242.13,0.335
242.14,0.34
242.14,0.33
242.14,0.3
242.15,0.26
242.15,0.195
242.16,0.11
242.16,0.02
242.16,-0.05
242.17,-0.11
242.17,-0.15
242.18,-0.18
242.18,-0.195
242.18,-0.205
242.19,-0.21
242.19,-0.205
242.2,-0.21
242.2,-0.215
242.2,-0.215
242.21,-0.215
242.21,-0.215
242.22,-0.23
242.22,-0.245
242.22,-0.25
242.23,-0.235
242.23,-0.23
242.24,-0.245
242.24,-0.27
242.24,-0.29
242.25,-0.29
242.25,-0.275
242.26,-0.265
242.26,-0.26
242.26,-0.26
242.27,-0.26
242.27,-0.26
242.28,-0.26
242.28,-0.265
242.28,-0.27
242.29,-0.275
242.29,-0.275
242.3,-0.28
242.3,-0.285
242.3,-0.285
242.31,-0.285
242.31,-0.3
242.32,-0.325
242.32,-0.34
242.32,-0.35
242.33,-0.355
242.33,-0.355
242.34,-0.365
242.34,-0.38
242.34,-0.39
242.35,-0.395
242.35,-0.41
242.36,-0.415
242.36,-0.415
242.36,-0.415
242.37,-0.41
242.37,-0.405
242.38,-0.41
242.38,-0.405
242.38,-0.39
242.39,-0.375
242.39,-0.37
242.4,-0.365
242.4,-0.35
242.4,-0.34
242.41,-0.335
242.41,-0.315
242.42,-0.295
242.42,-0.285
242.42,-0.285
242.43,-0.285
242.43,-0.275
242.44,-0.245
242.44,-0.23
242.44,-0.225
242.45,-0.22
242.45,-0.22
242.46,-0.21
242.46,-0.2
242.46,-0.2
242.47,-0.2
242.47,-0.21
242.48,-0.205
242.48,-0.2
242.48,-0.2
242.49,-0.205
242.49,-0.2
242.5,-0.205
242.5,-0.205
242.5,-0.2
242.51,-0.2
242.51,-0.2
242.52,-0.2
242.52,-0.195
242.52,-0.195
242.53,-0.195
242.53,-0.21
242.54,-0.215
242.54,-0.215
242.54,-0.22
242.55,-0.21
242.55,-0.205
242.56,-0.205
242.56,-0.21
242.56,-0.215
242.57,-0.22
242.57,-0.22
242.58,-0.23
242.58,-0.235
242.58,-0.235
242.59,-0.235
242.59,-0.23
242.6,-0.23
242.6,-0.235
242.6,-0.235
242.61,-0.24
242.61,-0.235
242.62,-0.235
242.62,-0.23
242.62,-0.24
242.63,-0.245
242.63,-0.245
242.64,-0.24
242.64,-0.24
242.64,-0.24
242.65,-0.24
242.65,-0.24
242.66,-0.24
242.66,-0.24
242.66,-0.24
242.67,-0.24
242.67,-0.23
242.68,-0.22
242.68,-0.22
242.68,-0.22
242.69,-0.225
242.69,-0.23
242.7,-0.225
242.7,-0.215
242.7,-0.2
242.71,-0.195
242.71,-0.185
242.72,-0.17
242.72,-0.15
242.72,-0.135
242.73,-0.13
242.73,-0.13
242.74,-0.13
242.74,-0.13
242.74,-0.13
242.75,-0.13
242.75,-0.13
242.76,-0.135
242.76,-0.15
242.76,-0.16
242.77,-0.18
242.77,-0.2
242.78,-0.215
242.78,-0.225
242.78,-0.22
242.79,-0.215
242.79,-0.21
242.8,-0.215
242.8,-0.215
242.8,-0.21
242.81,-0.21
242.81,-0.225
242.82,-0.245
242.82,-0.25
242.82,-0.25
242.83,-0.265
242.83,-0.315
242.84,-0.345
242.84,-0.335
242.84,-0.31
242.85,-0.29
242.85,-0.295
242.86,-0.31
242.86,-0.305
242.86,-0.26
242.87,-0.2
242.87,-0.175
242.88,-0.17
242.88,-0.175
242.88,-0.17
242.89,-0.165
242.89,-0.155
242.9,-0.125
242.9,-0.07
242.9,-0.05
242.91,-0.045
242.91,-0.075
242.92,-0.09
242.92,-0.065
242.92,0.025
242.93,0.095
242.93,0.13
242.94,0.145
242.94,0.155
242.94,0.195
242.95,0.23
242.95,0.25
242.96,0.25
242.96,0.21
242.96,0.155
242.97,0.125
242.97,0.105
242.98,0.035
242.98,-0.06
242.98,-0.135
242.99,-0.17
242.99,-0.175
243,-0.18
243,-0.205
243,-0.225
243.01,-0.235
243.01,-0.25
243.02,-0.255
243.02,-0.27
243.02,-0.305
243.03,-0.315
243.03,-0.315
243.04,-0.3
243.04,-0.285
243.04,-0.285
243.05,-0.31
243.05,-0.32
243.06,-0.31
243.06,-0.29
243.06,-0.285
243.07,-0.295
243.07,-0.31
243.08,-0.315
243.08,-0.31
243.08,-0.305
243.09,-0.305
243.09,-0.31
243.1,-0.305
243.1,-0.305
243.1,-0.31
243.11,-0.315
243.11,-0.32
243.12,-0.32
243.12,-0.345
243.12,-0.365
243.13,-0.38
243.13,-0.385
243.14,-0.39
243.14,-0.395
243.14,-0.4
243.15,-0.395
243.15,-0.395
243.16,-0.425
243.16,-0.445
243.16,-0.455
243.17,-0.45
243.17,-0.455
243.18,-0.46
243.18,-0.465
243.18,-0.46
243.19,-0.44
243.19,-0.42
243.2,-0.415
243.2,-0.435
243.2,-0.455
243.21,-0.455
243.21,-0.45
243.22,-0.44
243.22,-0.44
243.22,-0.435
243.23,-0.415
243.23,-0.385
243.24,-0.36
243.24,-0.355
243.24,-0.345
243.25,-0.325
243.25,-0.305
243.26,-0.29
243.26,-0.265
243.26,-0.24
243.27,-0.22
243.27,-0.2
243.28,-0.19
243.28,-0.185
243.28,-0.185
243.29,-0.19
243.29,-0.21
243.3,-0.225
243.3,-0.235
243.3,-0.24
243.31,-0.225
243.31,-0.195
243.32,-0.175
243.32,-0.19
243.32,-0.225
243.33,-0.24
243.33,-0.23
243.34,-0.2
243.34,-0.165
243.34,-0.17
243.35,-0.195
243.35,-0.235
243.36,-0.26
243.36,-0.21
243.36,-0.11
243.37,-0.04
243.37,-0.02
243.38,-0.02
243.38,-0.03
243.38,-0.035
243.39,-0.015
243.39,0.035
243.4,0.095
243.4,0.13
243.4,0.15
243.41,0.175
243.41,0.23
243.42,0.285
243.42,0.295
243.42,0.285
243.43,0.225
243.43,0.17
243.44,0.135
243.44,0.08
243.44,-0.01
243.45,-0.095
243.45,-0.14
243.46,-0.16
243.46,-0.19
243.46,-0.22
243.47,-0.245
243.47,-0.26
243.48,-0.27
243.48,-0.27
243.48,-0.27
243.49,-0.27
243.49,-0.275
243.5,-0.275
243.5,-0.275
243.5,-0.28
243.51,-0.28
243.51,-0.28
243.52,-0.28
243.52,-0.285
243.52,-0.28
243.53,-0.28
243.53,-0.285
243.54,-0.285
243.54,-0.285
243.54,-0.29
243.55,-0.29
243.55,-0.29
243.56,-0.29
243.56,-0.3
243.56,-0.315
243.57,-0.32
243.57,-0.325
243.58,-0.335
243.58,-0.345
243.58,-0.365
243.59,-0.385
243.59,-0.4
243.6,-0.405
243.6,-0.405
243.6,-0.405
243.61,-0.415
243.61,-0.415
243.62,-0.425
243.62,-0.425
243.62,-0.43
243.63,-0.435
243.63,-0.435
243.64,-0.44
243.64,-0.435
243.64,-0.425
243.65,-0.42
243.65,-0.415
243.66,-0.405
243.66,-0.39
243.66,-0.37
243.67,-0.35
243.67,-0.35
243.68,-0.345
243.68,-0.335
243.68,-0.31
243.69,-0.285
243.69,-0.27
243.7,-0.265
243.7,-0.265
243.7,-0.265
243.71,-0.265
243.71,-0.26
243.72,-0.255
243.72,-0.245
243.72,-0.245
243.73,-0.245
243.73,-0.24
243.74,-0.245
243.74,-0.245
243.74,-0.245
243.75,-0.245
243.75,-0.245
243.76,-0.24
243.76,-0.24
243.76,-0.24
243.77,-0.235
243.77,-0.24
243.78,-0.24
243.78,-0.24
243.78,-0.24
243.79,-0.24
243.79,-0.24
243.8,-0.235
243.8,-0.23
243.8,-0.23
243.81,-0.235
243.81,-0.23
243.82,-0.225
243.82,-0.23
243.82,-0.23
243.83,-0.225
243.83,-0.23
243.84,-0.23
243.84,-0.22
243.84,-0.22
243.85,-0.22
243.85,-0.225
243.86,-0.235
243.86,-0.235
243.86,-0.24
243.87,-0.235
243.87,-0.23
243.88,-0.23
243.88,-0.23
243.88,-0.225
243.89,-0.22
243.89,-0.22
243.9,-0.22
243.9,-0.22
243.9,-0.22
243.91,-0.22
243.91,-0.21
243.92,-0.2
243.92,-0.2
243.92,-0.2
243.93,-0.205
243.93,-0.21
243.94,-0.22
243.94,-0.215
243.94,-0.21
243.95,-0.205
243.95,-0.205
243.96,-0.205
243.96,-0.205
243.96,-0.205
243.97,-0.205
243.97,-0.21
243.98,-0.21
243.98,-0.21
243.98,-0.21
243.99,-0.205
243.99,-0.21
244,-0.21
244,-0.21
244,-0.21
244.01,-0.205
244.01,-0.2
244.02,-0.2
244.02,-0.195
244.02,-0.195
244.03,-0.19
244.03,-0.19
244.04,-0.19
244.04,-0.19
244.04,-0.19
244.05,-0.185
244.05,-0.18
244.06,-0.175
244.06,-0.18
244.06,-0.185
244.07,-0.185
244.07,-0.175
244.08,-0.18
244.08,-0.185
244.08,-0.185
244.09,-0.18
244.09,-0.18
244.1,-0.175
244.1,-0.175
244.1,-0.175
244.11,-0.17
244.11,-0.175
244.12,-0.17
244.12,-0.17
244.12,-0.17
244.13,-0.165
244.13,-0.16
244.14,-0.16
244.14,-0.16
244.14,-0.16
244.15,-0.16
244.15,-0.16
244.16,-0.16
244.16,-0.16
244.16,-0.16
244.17,-0.16
244.17,-0.155
244.18,-0.14
244.18,-0.105
244.18,-0.07
244.19,-0.055
244.19,-0.055
244.2,-0.06
244.2,-0.08
244.2,-0.095
244.21,-0.11
244.21,-0.12
244.22,-0.13
244.22,-0.13
244.22,-0.125
244.23,-0.115
244.23,-0.105
244.24,-0.11
244.24,-0.115
244.24,-0.12
244.25,-0.125
244.25,-0.13
244.26,-0.125
244.26,-0.125
244.26,-0.13
244.27,-0.13
244.27,-0.125
244.28,-0.125
244.28,-0.13
244.28,-0.135
244.29,-0.14
244.29,-0.145
244.3,-0.145
244.3,-0.145
244.3,-0.145
244.31,-0.145
244.31,-0.15
244.32,-0.15
244.32,-0.145
244.32,-0.145
244.33,-0.145
244.33,-0.135
244.34,-0.115
244.34,-0.075
244.34,-0.05
244.35,-0.04
244.35,-0.07
244.36,-0.14
244.36,-0.19
244.36,-0.185
244.37,-0.135
244.37,-0.035
244.38,0.04
244.38,0.08
244.38,0.085
244.39,0.09
244.39,0.125
244.4,0.22
244.4,0.32
244.4,0.38
244.41,0.39
244.41,0.4
244.42,0.41
244.42,0.44
244.42,0.47
244.43,0.47
244.43,0.44
244.44,0.39
244.44,0.355
244.44,0.31
244.45,0.245
244.45,0.15
244.46,0.07
244.46,0.01
244.46,-0.03
244.47,-0.075
244.47,-0.095
244.48,-0.095
244.48,-0.1
244.48,-0.1
244.49,-0.1
244.49,-0.11
244.5,-0.12
244.5,-0.125
244.5,-0.12
244.51,-0.12
244.51,-0.12
244.52,-0.12
244.52,-0.12
244.52,-0.13
244.53,-0.125
244.53,-0.125
244.54,-0.12
244.54,-0.12
244.54,-0.13
244.55,-0.135
244.55,-0.14
244.56,-0.145
244.56,-0.145
244.56,-0.14
244.57,-0.145
244.57,-0.145
244.58,-0.145
244.58,-0.145
244.58,-0.145
244.59,-0.155
244.59,-0.17
244.6,-0.175
244.6,-0.185
244.6,-0.195
244.61,-0.205
244.61,-0.21
244.62,-0.22
244.62,-0.225
244.62,-0.24
244.63,-0.245
244.63,-0.245
244.64,-0.25
244.64,-0.265
244.64,-0.28
244.65,-0.295
244.65,-0.305
244.66,-0.305
244.66,-0.305
244.66,-0.31
244.67,-0.315
244.67,-0.315
244.68,-0.315
244.68,-0.32
244.68,-0.315
244.69,-0.305
244.69,-0.29
244.7,-0.265
244.7,-0.245
244.7,-0.235
244.71,-0.225
244.71,-0.22
244.72,-0.21
244.72,-0.2
244.72,-0.19
244.73,-0.175
244.73,-0.16
244.74,-0.14
244.74,-0.13
244.74,-0.125
244.75,-0.125
244.75,-0.12
244.76,-0.11
244.76,-0.1
244.76,-0.085
244.77,-0.075
244.77,-0.07
244.78,-0.065
244.78,-0.065
244.78,-0.065
244.79,-0.055
244.79,-0.045
244.8,-0.035
244.8,-0.035
244.8,-0.04
244.81,-0.04
244.81,-0.04
244.82,-0.04
244.82,-0.04
244.82,-0.04
244.83,-0.04
244.83,-0.04
244.84,-0.045
244.84,-0.05
244.84,-0.055
244.85,-0.05
244.85,-0.055
244.86,-0.05
244.86,-0.05
244.86,-0.05
244.87,-0.05
244.87,-0.055
244.88,-0.055
244.88,-0.06
244.88,-0.065
244.89,-0.065
244.89,-0.065
244.9,-0.055
244.9,-0.055
244.9,-0.055
244.91,-0.055
244.91,-0.055
244.92,-0.055
244.92,-0.05
244.92,-0.06
244.93,-0.055
244.93,-0.055
244.94,-0.055
244.94,-0.06
244.94,-0.06
244.95,-0.055
244.95,-0.045
244.96,-0.035
244.96,-0.03
244.96,-0.03
244.97,-0.03
244.97,-0.02
244.98,-0.015
244.98,-0.01
244.98,-0.015
244.99,-0.035
244.99,-0.04
245,-0.04
245,-0.045
245,-0.045
245.01,-0.04
245.01,-0.035
245.02,-0.025
245.02,-0.02
245.02,-0.02
245.03,-0.025
245.03,-0.06
245.04,-0.06
245.04,-0.065
245.04,-0.07
245.05,-0.065
245.05,-0.06
245.06,-0.06
245.06,-0.06
245.06,-0.055
245.07,-0.06
245.07,-0.055
245.08,-0.055
245.08,-0.06
245.08,-0.06
245.09,-0.06
245.09,-0.06
245.1,-0.06
245.1,-0.06
245.1,-0.06
245.11,-0.06
245.11,-0.055
245.12,-0.055
245.12,-0.055
245.12,-0.045
245.13,-0.025
245.13,0.005
245.14,0.03
245.14,0.035
245.14,-0.025
245.15,-0.105
245.15,-0.13
245.16,-0.09
245.16,0.005
245.16,0.11
245.17,0.18
245.17,0.205
245.18,0.21
245.18,0.215
245.18,0.26
245.19,0.34
245.19,0.425
245.2,0.475
245.2,0.5
245.2,0.51
245.21,0.52
245.21,0.54
245.22,0.555
245.22,0.555
245.22,0.535
245.23,0.5
245.23,0.46
245.24,0.395
245.24,0.3
245.24,0.2
245.25,0.125
245.25,0.075
245.26,0.045
245.26,0.02
245.26,0
245.27,-0.01
245.27,-0.025
245.28,-0.035
245.28,-0.04
245.28,-0.045
245.29,-0.045
245.29,-0.045
245.3,-0.045
245.3,-0.045
245.3,-0.05
245.31,-0.05
245.31,-0.055
245.32,-0.055
245.32,-0.055
245.32,-0.06
245.33,-0.06
245.33,-0.06
245.34,-0.06
245.34,-0.06
245.34,-0.06
245.35,-0.065
245.35,-0.065
245.36,-0.075
245.36,-0.075
245.36,-0.08
245.37,-0.08
245.37,-0.085
245.38,-0.09
245.38,-0.095
245.38,-0.105
245.39,-0.125
245.39,-0.135
245.4,-0.14
245.4,-0.15
245.4,-0.165
245.41,-0.185
245.41,-0.195
245.42,-0.2
245.42,-0.205
245.42,-0.215
245.43,-0.24
245.43,-0.25
245.44,-0.255
245.44,-0.26
245.44,-0.26
245.45,-0.26
245.45,-0.26
245.46,-0.26
245.46,-0.26
245.46,-0.245
245.47,-0.24
245.47,-0.24
245.48,-0.24
245.48,-0.21
245.48,-0.175
245.49,-0.16
245.49,-0.155
245.5,-0.15
245.5,-0.14
245.5,-0.115
245.51,-0.095
245.51,-0.09
245.52,-0.08
245.52,-0.07
245.52,-0.05
245.53,-0.05
245.53,-0.04
245.54,-0.04
245.54,-0.03
245.54,-0.015
245.55,-0.01
245.55,-0.01
245.56,-0.01
245.56,-0.005
245.56,0
245.57,0
245.57,0.005
245.58,0.005
245.58,0.005
245.58,0.005
245.59,0
245.59,0
245.6,0.005
245.6,0.005
245.6,0.005
245.61,0.005
245.61,0.01
245.62,0.005
245.62,0.005
245.62,0
245.63,0
245.63,0
245.64,0
245.64,0.005
245.64,0
245.65,0
245.65,-0.005
245.66,-0.015
245.66,-0.015
245.66,-0.01
245.67,-0.01
245.67,-0.01
245.68,-0.01
245.68,-0.015
245.68,-0.015
245.69,-0.015
245.69,-0.015
245.7,-0.02
245.7,-0.015
245.7,-0.01
245.71,-0.01
245.71,-0.015
245.72,-0.01
245.72,-0.015
245.72,-0.015
245.73,-0.015
245.73,-0.015
245.74,-0.015
245.74,-0.015
245.74,-0.015
245.75,-0.02
245.75,-0.015
245.76,-0.015
245.76,-0.01
245.76,-0.01
245.77,-0.015
245.77,-0.015
245.78,-0.015
245.78,-0.005
245.78,0
245.79,-0.005
245.79,-0.005
245.8,-0.01
245.8,-0.005
245.8,-0.005
245.81,-0.01
245.81,-0.005
245.82,-0.005
245.82,-0.01
245.82,-0.01
245.83,-0.015
245.83,-0.015
245.84,-0.015
245.84,-0.015
245.84,-0.015
245.85,-0.015
245.85,-0.015
245.86,-0.015
245.86,-0.015
245.86,-0.02
245.87,-0.02
245.87,-0.02
245.88,-0.015
245.88,-0.015
245.88,-0.015
245.89,0
245.89,0.03
245.9,0.05
245.9,0.065
245.9,0.075
245.91,0.085
245.91,0.09
245.92,0.11
245.92,0.135
245.92,0.15
245.93,0.145
245.93,0.125
245.94,0.095
245.94,0.075
245.94,0.06
245.95,0.055
245.95,0.04
245.96,0.025
245.96,0.02
245.96,0.02
245.97,0.02
245.97,0.015
245.98,0.015
245.98,0.015
245.98,0.01
245.99,0.005
245.99,0
246,0
246,-0.005
246,-0.01
246.01,-0.01
246.01,-0.01
246.02,-0.01
246.02,-0.01
246.02,-0.015
246.03,-0.015
246.03,-0.015
246.04,-0.005
246.04,-0.005
246.04,-0.005
246.05,0.005
246.05,0.025
246.06,0.035
246.06,0.04
246.06,0.015
246.07,-0.04
246.07,-0.08
246.08,-0.08
246.08,0.01
246.08,0.13
246.09,0.215
246.09,0.25
246.1,0.26
246.1,0.25
246.1,0.26
246.11,0.345
246.11,0.445
246.12,0.5
246.12,0.525
246.12,0.53
246.13,0.545
246.13,0.565
246.14,0.575
246.14,0.58
246.14,0.55
246.15,0.505
246.15,0.46
246.16,0.405
246.16,0.325
246.16,0.23
246.17,0.16
246.17,0.105
246.18,0.065
246.18,0.045
246.18,0.025
246.19,0.01
246.19,0.01
246.2,0.01
246.2,0.01
246.2,0.005
246.21,0
246.21,-0.015
246.22,-0.02
246.22,-0.02
246.22,-0.02
246.23,-0.02
246.23,-0.015
246.24,-0.02
246.24,-0.015
246.24,-0.02
246.25,-0.02
246.25,-0.02
246.26,-0.02
246.26,-0.025
246.26,-0.025
246.27,-0.025
246.27,-0.03
246.28,-0.025
246.28,-0.025
246.28,-0.025
246.29,-0.025
246.29,-0.035
246.3,-0.055
246.3,-0.06
246.3,-0.065
246.31,-0.07
246.31,-0.07
246.32,-0.075
246.32,-0.095
246.32,-0.12
246.33,-0.135
246.33,-0.14
246.34,-0.14
246.34,-0.145
246.34,-0.165
246.35,-0.18
246.35,-0.195
246.36,-0.205
246.36,-0.22
246.36,-0.22
246.37,-0.22
246.37,-0.22
246.38,-0.22
246.38,-0.22
246.38,-0.22
246.39,-0.22
246.39,-0.22
246.4,-0.21
246.4,-0.2
246.4,-0.18
246.41,-0.17
246.41,-0.155
246.42,-0.14
246.42,-0.12
246.42,-0.105
246.43,-0.095
246.43,-0.085
246.44,-0.065
246.44,-0.05
246.44,-0.03
246.45,-0.01
246.45,-0.01
246.46,-0.015
246.46,-0.005
246.46,0
246.47,0.005
246.47,0.01
246.48,0.02
246.48,0.02
246.48,0.025
246.49,0.03
246.49,0.03
246.5,0.03
246.5,0.03
246.5,0.03
246.51,0.03
246.51,0.03
246.52,0.04
246.52,0.05
246.52,0.045
246.53,0.045
246.53,0.045
246.54,0.045
246.54,0.04
246.54,0.035
246.55,0.035
246.55,0.035
246.56,0.035
246.56,0.035
246.56,0.03
246.57,0.03
246.57,0.035
246.58,0.035
246.58,0.03
246.58,0.03
246.59,0.03
246.59,0.03
246.6,0.025
246.6,0.025
246.6,0.02
246.61,0.02
246.61,0.015
246.62,0.01
246.62,0.015
246.62,0.015
246.63,0.02
246.63,0.02
246.64,0.015
246.64,0.005
246.64,0
246.65,0
246.65,0.005
246.66,0.005
246.66,0.01
246.66,0.01
246.67,0.01
246.67,0.01
246.68,0.01
246.68,0.005
246.68,0.01
246.69,0.015
246.69,0.015
246.7,0.01
246.7,0
246.7,0
246.71,0
246.71,0.005
246.72,0.005
246.72,0.005
246.72,0
246.73,0
246.73,0
246.74,0
246.74,0.005
246.74,0.01
246.75,0.01
246.75,0.005
246.76,0.005
246.76,0.01
246.76,0.005
246.77,0.005
246.77,0.005
246.78,0.005
246.78,0.005
246.78,0.005
246.79,0.005
246.79,0.005
246.8,0.005
246.8,0
246.8,0
246.81,0
246.81,0.005
246.82,0.01
246.82,0.01
246.82,0.015
246.83,0.015
246.83,0.015
246.84,0.015
246.84,0.015
246.84,0.02
246.85,0.02
246.85,0.025
246.86,0.045
246.86,0.065
246.86,0.075
246.87,0.085
246.87,0.09
246.88,0.11
246.88,0.14
246.88,0.165
246.89,0.175
246.89,0.17
246.9,0.145
246.9,0.12
246.9,0.11
246.91,0.09
246.91,0.065
246.92,0.05
246.92,0.035
246.92,0.035
246.93,0.035
246.93,0.03
246.94,0.03
246.94,0.03
246.94,0.025
246.95,0.02
246.95,0.02
246.96,0.02
246.96,0.02
246.96,0.015
246.97,0.01
246.97,0.01
246.98,0.015
246.98,0.01
246.98,0.01
246.99,0
246.99,0
247,0
247,0
247,0
247.01,0
247.01,0.01
247.02,0.03
247.02,0.055
247.02,0.065
247.03,0.07
247.03,-0.01
247.04,-0.06
247.04,-0.07
247.04,-0.005
247.05,0.135
247.05,0.25
247.06,0.285
247.06,0.29
247.06,0.275
247.07,0.275
247.07,0.325
247.08,0.415
247.08,0.48
247.08,0.505
247.09,0.53
247.09,0.565
247.1,0.59
247.1,0.595
247.1,0.6
247.11,0.58
247.11,0.55
247.12,0.52
247.12,0.475
247.12,0.395
247.13,0.295
247.13,0.21
247.14,0.16
247.14,0.12
247.14,0.08
247.15,0.05
247.15,0.035
247.16,0.025
247.16,0.02
247.16,0.02
247.17,0.015
247.17,0.015
247.18,0.015
247.18,0.015
247.18,0.01
247.19,0
247.19,-0.005
247.2,-0.01
247.2,-0.015
247.2,-0.015
247.21,-0.015
247.21,-0.015
247.22,-0.015
247.22,-0.01
247.22,-0.015
247.23,-0.02
247.23,-0.025
247.24,-0.025
247.24,-0.03
247.24,-0.025
247.25,-0.025
247.25,-0.025
247.26,-0.025
247.26,-0.03
247.26,-0.045
247.27,-0.05
247.27,-0.055
247.28,-0.06
247.28,-0.07
247.28,-0.08
247.29,-0.085
247.29,-0.085
247.3,-0.095
247.3,-0.11
247.3,-0.125
247.31,-0.14
247.31,-0.155
247.32,-0.165
247.32,-0.175
247.32,-0.185
247.33,-0.2
247.33,-0.195
247.34,-0.195
247.34,-0.2
247.34,-0.21
247.35,-0.21
247.35,-0.21
247.36,-0.2
247.36,-0.185
247.36,-0.165
247.37,-0.155
247.37,-0.145
247.38,-0.13
247.38,-0.115
247.38,-0.1
247.39,-0.085
247.39,-0.075
247.4,-0.065
247.4,-0.05
247.4,-0.025
247.41,-0.01
247.41,-0.005
247.42,0
247.42,0.005
247.42,0.01
247.43,0.01
247.43,0.025
247.44,0.04
247.44,0.045
247.44,0.05
247.45,0.05
247.45,0.05
247.46,0.05
247.46,0.05
247.46,0.05
247.47,0.055
247.47,0.055
247.48,0.055
247.48,0.055
247.48,0.055
247.49,0.055
247.49,0.055
247.5,0.05
247.5,0.055
247.5,0.05
247.51,0.05
247.51,0.055
247.52,0.05
247.52,0.05
247.52,0.05
247.53,0.05
247.53,0.045
247.54,0.045
247.54,0.045
247.54,0.045
247.55,0.04
247.55,0.03
247.56,0.03
247.56,0.025
247.56,0.035
247.57,0.035
247.57,0.035
247.58,0.035
247.58,0.035
247.58,0.035
247.59,0.03
247.59,0.03
247.6,0.03
247.6,0.03
247.6,0.03
247.61,0.03
247.61,0.03
247.62,0.025
247.62,0.025
247.62,0.025
247.63,0.025
247.63,0.025
247.64,0.025
247.64,0.025
247.64,0.025
247.65,0.02
247.65,0.015
247.66,0.015
247.66,0.01
247.66,0.01
247.67,0.01
247.67,0.01
247.68,0.01
247.68,0.015
247.68,0.02
247.69,0.025
247.69,0.02
247.7,0.025
247.7,0.03
247.7,0.025
247.71,0.025
247.71,0.025
247.72,0.025
247.72,0.02
247.72,0.02
247.73,0.025
247.73,0.02
247.74,0.02
247.74,0.015
247.74,0.02
247.75,0.025
247.75,0.025
247.76,0.025
247.76,0.025
247.76,0.025
247.77,0.025
247.77,0.02
247.78,0.025
247.78,0.02
247.78,0.02
247.79,0.025
247.79,0.025
247.8,0.025
247.8,0.025
247.8,0.025
247.81,0.02
247.81,0.02
247.82,0.025
247.82,0.025
247.82,0.02
247.83,0.01
247.83,0.01
247.84,0.015
247.84,0.02
247.84,0.02
247.85,0.03
247.85,0.04
247.86,0.065
247.86,0.08
247.86,0.1
247.87,0.125
247.87,0.12
247.88,0.14
247.88,0.155
247.88,0.155
247.89,0.165
247.89,0.16
247.9,0.14
247.9,0.11
247.9,0.095
247.91,0.08
247.91,0.065
247.92,0.055
247.92,0.045
247.92,0.045
247.93,0.04
247.93,0.04
247.94,0.04
247.94,0.04
247.94,0.04
247.95,0.035
247.95,0.03
247.96,0.03
247.96,0.03
247.96,0.025
247.97,0.025
247.97,0.025
247.98,0.025
247.98,0.02
247.98,0.015
247.99,0.01
247.99,0.01
248,0.01
248,0.01
248,0.005
248.01,0.01
248.01,0.02
248.02,0.055
248.02,0.075
248.02,0.08
248.03,0.07
248.03,0
248.04,-0.05
248.04,-0.055
248.04,0.025
248.05,0.175
248.05,0.27
248.06,0.305
248.06,0.3
248.06,0.285
248.07,0.285
248.07,0.35
248.08,0.43
248.08,0.49
248.08,0.52
248.09,0.54
248.09,0.565
248.1,0.59
248.1,0.61
248.1,0.615
248.11,0.6
248.11,0.56
248.12,0.52
248.12,0.475
248.12,0.405
248.13,0.32
248.13,0.24
248.14,0.175
248.14,0.12
248.14,0.09
248.15,0.07
248.15,0.055
248.16,0.045
248.16,0.04
248.16,0.035
248.17,0.03
248.17,0.03
248.18,0.025
248.18,0.025
248.18,0.025
248.19,0.025
248.19,0.025
248.2,0.025
248.2,0.02
248.2,0.02
248.21,0.02
248.21,0.025
248.22,0.02
248.22,0.01
248.22,0.01
248.23,0.01
248.23,0.005
248.24,0.01
248.24,0.01
248.24,0.01
248.25,0.005
248.25,0
248.26,-0.005
248.26,-0.01
248.26,-0.01
248.27,-0.015
248.27,-0.02
248.28,-0.03
248.28,-0.035
248.28,-0.04
248.29,-0.055
248.29,-0.075
248.3,-0.085
248.3,-0.1
248.3,-0.12
248.31,-0.14
248.31,-0.15
248.32,-0.15
248.32,-0.155
248.32,-0.165
248.33,-0.18
248.33,-0.185
248.34,-0.18
248.34,-0.18
248.34,-0.175
248.35,-0.175
248.35,-0.18
248.36,-0.175
248.36,-0.165
248.36,-0.145
248.37,-0.135
248.37,-0.125
248.38,-0.115
248.38,-0.1
248.38,-0.09
248.39,-0.065
248.39,-0.045
248.4,-0.035
248.4,-0.025
248.4,-0.015
248.41,0
248.41,0.015
248.42,0.025
248.42,0.03
248.42,0.035
248.43,0.045
248.43,0.04
248.44,0.04
248.44,0.04
248.44,0.045
248.45,0.05
248.45,0.05
248.46,0.07
248.46,0.095
248.46,0.1
248.47,0.1
248.47,0.09
248.48,0.09
248.48,0.09
248.48,0.09
248.49,0.09
248.49,0.085
248.5,0.085
248.5,0.095
248.5,0.09
248.51,0.085
248.51,0.085
248.52,0.085
248.52,0.085
248.52,0.075
248.53,0.08
248.53,0.085
248.54,0.085
248.54,0.075
248.54,0.075
248.55,0.075
248.55,0.06
248.56,0.07
248.56,0.07
248.56,0.07
248.57,0.07
248.57,0.07
248.58,0.055
248.58,0.06
248.58,0.055
248.59,0.055
248.59,0.055
248.6,0.06
248.6,0.06
248.6,0.06
248.61,0.06
248.61,0.06
248.62,0.06
248.62,0.06
248.62,0.06
248.63,0.06
248.63,0.06
248.64,0.05
248.64,0.05
248.64,0.055
248.65,0.055
248.65,0.055
248.66,0.055
248.66,0.05
248.66,0.05
248.67,0.05
248.67,0.045
248.68,0.045
248.68,0.045
248.68,0.045
248.69,0.045
248.69,0.045
248.7,0.05
248.7,0.05
248.7,0.05
248.71,0.05
248.71,0.05
248.72,0.05
248.72,0.055
248.72,0.055
248.73,0.055
248.73,0.055
248.74,0.055
248.74,0.055
248.74,0.055
248.75,0.055
248.75,0.06
248.76,0.06
248.76,0.06
248.76,0.065
248.77,0.06
248.77,0.055
248.78,0.05
248.78,0.045
248.78,0.045
248.79,0.05
248.79,0.055
248.8,0.06
248.8,0.065
248.8,0.065
248.81,0.06
248.81,0.06
248.82,0.06
248.82,0.055
248.82,0.055
248.83,0.06
248.83,0.06
248.84,0.055
248.84,0.06
248.84,0.06
248.85,0.06
248.85,0.06
248.86,0.06
248.86,0.06
248.86,0.065
248.87,0.065
248.87,0.08
248.88,0.12
248.88,0.145
248.88,0.15
248.89,0.15
248.89,0.15
248.9,0.155
248.9,0.155
248.9,0.16
248.91,0.16
248.91,0.155
248.92,0.145
248.92,0.13
248.92,0.115
248.93,0.115
248.93,0.1
248.94,0.105
248.94,0.1
248.94,0.09
248.95,0.085
248.95,0.085
248.96,0.08
248.96,0.07
248.96,0.065
248.97,0.065
248.97,0.07
248.98,0.07
248.98,0.065
248.98,0.065
248.99,0.065
248.99,0.065
249,0.065
249,0.06
249,0.06
249.01,0.06
249.01,0.06
249.02,0.06
249.02,0.06
249.02,0.065
249.03,0.065
249.03,0.065
249.04,0.08
249.04,0.09
249.04,0.1
249.05,0.1
249.05,0.065
249.06,0.005
249.06,0
249.06,0.025
249.07,0.145
249.07,0.275
249.08,0.34
249.08,0.35
249.08,0.325
249.09,0.31
249.09,0.355
249.1,0.465
249.1,0.55
249.1,0.58
249.11,0.585
249.11,0.59
249.12,0.625
249.12,0.66
249.12,0.675
249.13,0.66
249.13,0.625
249.14,0.58
249.14,0.54
249.14,0.475
249.15,0.385
249.15,0.3
249.16,0.225
249.16,0.175
249.16,0.135
249.17,0.11
249.17,0.095
249.18,0.08
249.18,0.075
249.18,0.07
249.19,0.07
249.19,0.07
249.2,0.065
249.2,0.06
249.2,0.06
249.21,0.055
249.21,0.055
249.22,0.055
249.22,0.055
249.22,0.055
249.23,0.055
249.23,0.05
249.24,0.05
249.24,0.05
249.24,0.05
249.25,0.05
249.25,0.05
249.26,0.05
249.26,0.05
249.26,0.045
249.27,0.045
249.27,0.04
249.28,0.03
249.28,0.02
249.28,0.015
249.29,0.015
249.29,0.025
249.3,0.03
249.3,0
249.3,-0.005
249.31,-0.01
249.31,-0.02
249.32,-0.035
249.32,-0.05
249.32,-0.07
249.33,-0.09
249.33,-0.095
249.34,-0.1
249.34,-0.1
249.34,-0.105
249.35,-0.11
249.35,-0.125
249.36,-0.135
249.36,-0.14
249.36,-0.14
249.37,-0.14
249.37,-0.13
249.38,-0.13
249.38,-0.125
249.38,-0.125
249.39,-0.12
249.39,-0.11
249.4,-0.08
249.4,-0.075
249.4,-0.075
249.41,-0.07
249.41,-0.045
249.42,-0.005
249.42,0.01
249.42,0.015
249.43,0.015
249.43,0.02
249.44,0.03
249.44,0.05
249.44,0.07
249.45,0.065
249.45,0.065
249.46,0.07
249.46,0.075
249.46,0.08
249.47,0.08
249.47,0.08
249.48,0.09
249.48,0.09
249.48,0.09
249.49,0.1
249.49,0.1
249.5,0.1
249.5,0.105
249.5,0.105
249.51,0.105
249.51,0.105
249.52,0.1
249.52,0.105
249.52,0.1
249.53,0.1
249.53,0.105
249.54,0.105
249.54,0.1
249.54,0.1
249.55,0.095
249.55,0.09
249.56,0.09
249.56,0.09
249.56,0.09
249.57,0.095
249.57,0.09
249.58,0.09
249.58,0.09
249.58,0.09
249.59,0.09
249.59,0.09
249.6,0.085
249.6,0.085
249.6,0.08
249.61,0.085
249.61,0.08
249.62,0.07
249.62,0.08
249.62,0.075
249.63,0.08
249.63,0.08
249.64,0.08
249.64,0.075
249.64,0.075
249.65,0.075
249.65,0.08
249.66,0.08
249.66,0.075
249.66,0.075
249.67,0.07
249.67,0.07
249.68,0.075
249.68,0.075
249.68,0.07
249.69,0.075
249.69,0.075
249.7,0.075
249.7,0.07
249.7,0.07
249.71,0.07
249.71,0.07
249.72,0.065
249.72,0.065
249.72,0.07
249.73,0.07
249.73,0.07
249.74,0.07
249.74,0.07
249.74,0.07
249.75,0.07
249.75,0.07
249.76,0.07
249.76,0.07
249.76,0.07
249.77,0.07
249.77,0.07
249.78,0.07
249.78,0.07
249.78,0.07
249.79,0.07
249.79,0.07
249.8,0.07
249.8,0.075
249.8,0.07
249.81,0.065
249.81,0.07
249.82,0.07
249.82,0.07
249.82,0.07
249.83,0.07
249.83,0.07
249.84,0.07
249.84,0.07
249.84,0.075
249.85,0.07
249.85,0.07
249.86,0.075
249.86,0.075
249.86,0.075
249.87,0.075
249.87,0.075
249.88,0.07
249.88,0.07
249.88,0.07
249.89,0.07
249.89,0.07
249.9,0.08
249.9,0.115
249.9,0.15
249.91,0.165
249.91,0.175
249.92,0.175
249.92,0.175
249.92,0.175
249.93,0.18
249.93,0.18
249.94,0.17
249.94,0.16
249.94,0.13
249.95,0.11
249.95,0.105
249.96,0.105
249.96,0.105
249.96,0.1
249.97,0.09
249.97,0.085
249.98,0.08
249.98,0.095
249.98,0.08
249.99,0.075
249.99,0.075
250,0.07
250,0.07
250,0.065
250.01,0.065
250.01,0.06
250.02,0.06
250.02,0.055
250.02,0.06
250.03,0.065
250.03,0.06
250.04,0.06
250.04,0.06
250.04,0.065
250.05,0.05
250.05,0.06
250.06,0.065
250.06,0.085
250.06,0.115
250.07,0.125
250.07,0.115
250.08,0.035
250.08,-0.015
250.08,-0.02
250.09,0.06
250.09,0.19
250.1,0.29
250.1,0.33
250.1,0.335
250.11,0.325
250.11,0.32
250.12,0.36
250.12,0.455
250.12,0.535
250.13,0.575
250.13,0.575
250.14,0.595
250.14,0.625
250.14,0.67
250.15,0.68
250.15,0.665
250.16,0.62
250.16,0.58
250.16,0.54
250.17,0.48
250.17,0.39
250.18,0.295
250.18,0.22
250.18,0.165
250.19,0.125
250.19,0.1
250.2,0.085
250.2,0.08
250.2,0.075
250.21,0.07
250.21,0.055
250.22,0.05
250.22,0.055
250.22,0.055
250.23,0.05
250.23,0.055
250.24,0.055
250.24,0.05
250.24,0.055
250.25,0.05
250.25,0.05
250.26,0.04
250.26,0.03
250.26,0.035
250.27,0.04
250.27,0.05
250.28,0.045
250.28,0.04
250.28,0.04
250.29,0.04
250.29,0.035
250.3,0.025
250.3,0.02
250.3,0.04
250.31,0.035
250.31,0.015
250.32,0
250.32,-0.05
250.32,-0.095
250.33,-0.005
250.33,-0.015
250.34,-0.025
250.34,-0.035
250.34,-0.045
250.35,-0.06
250.35,-0.075
250.36,-0.085
250.36,-0.085
250.36,-0.095
250.37,-0.105
250.37,-0.115
250.38,-0.13
250.38,-0.125
250.38,-0.125
250.39,-0.16
250.39,-0.24
250.4,-0.13
250.4,-0.13
250.4,-0.125
250.41,-0.12
250.41,-0.11
250.42,-0.095
250.42,-0.08
250.42,-0.065
250.43,-0.05
250.43,-0.03
250.44,-0.02
250.44,-0.005
250.44,0
250.45,0.015
250.45,0.03
250.46,0.045
250.46,0.05
250.46,0.07
250.47,0.085
250.47,0.09
250.48,0.09
250.48,0.09
250.48,0.09
250.49,0.095
250.49,0.095
250.5,0.1
250.5,0.1
250.5,0.1
250.51,0.1
250.51,0.1
250.52,0.1
250.52,0.1
250.52,0.1
250.53,0.08
250.53,0.1
250.54,0.105
250.54,0.1
250.54,0.1
250.55,0.1
250.55,0.1
250.56,0.1
250.56,0.105
250.56,0.105
250.57,0.1
250.57,0.09
250.58,0.09
250.58,0.09
250.58,0.09
250.59,0.09
250.59,0.085
250.6,0.065
250.6,0.08
250.6,0.09
250.61,0.09
250.61,0.09
250.62,0.085
250.62,0.09
250.62,0.09
250.63,0.09
250.63,0.085
250.64,0.085
250.64,0.085
250.64,0.085
250.65,0.08
250.65,0.075
250.66,0.07
250.66,0.07
250.66,0.075
250.67,0.08
250.67,0.075
250.68,0.075
250.68,0.075
250.68,0.07
250.69,0.07
250.69,0.07
250.7,0.07
250.7,0.07
250.7,0.07
250.71,0.07
250.71,0.07
250.72,0.075
250.72,0.07
250.72,0.07
250.73,0.06
250.73,0.06
250.74,0.06
250.74,0.065
250.74,0.06
250.75,0.065
250.75,0.07
250.76,0.065
250.76,0.065
250.76,0.065
250.77,0.06
250.77,0.06
250.78,0.06
250.78,0.06
250.78,0.065
250.79,0.065
250.79,0.065
250.8,0.065
250.8,0.07
250.8,0.065
250.81,0.065
250.81,0.065
250.82,0.065
250.82,0.065
250.82,0.07
250.83,0.07
250.83,0.07
250.84,0.065
250.84,0.065
250.84,0.06
250.85,0.06
250.85,0.06
250.86,0.06
250.86,0.06
250.86,0.06
250.87,0.06
250.87,0.065
250.88,0.065
250.88,0.07
250.88,0.07
250.89,0.065
250.89,0.065
250.9,0.065
250.9,0.065
250.9,0.065
250.91,0.065
250.91,0.065
250.92,0.07
250.92,0.075
250.92,0.09
250.93,0.12
250.93,0.145
250.94,0.155
250.94,0.165
250.94,0.175
250.95,0.175
250.95,0.195
250.96,0.19
250.96,0.19
250.96,0.175
250.97,0.15
250.97,0.13
250.98,0.11
250.98,0.105
250.98,0.1
250.99,0.09
250.99,0.085
251,0.08
251,0.075
251,0.07
251.01,0.07
251.01,0.07
251.02,0.075
251.02,0.07
251.02,0.055
251.03,0.045
251.03,0.045
251.04,0.045
251.04,0.045
251.04,0.045
251.05,0.045
251.05,0.05
251.06,0.045
251.06,0.045
251.06,0.045
251.07,0.045
251.07,0.045
251.08,0.05
251.08,0.05
251.08,0.065
251.09,0.09
251.09,0.105
251.1,0.105
251.1,0.05
251.1,0
251.11,-0.015
251.11,0.03
251.12,0.155
251.12,0.28
251.12,0.33
251.13,0.335
251.13,0.315
251.14,0.305
251.14,0.345
251.14,0.44
251.15,0.53
251.15,0.57
251.16,0.585
251.16,0.6
251.16,0.625
251.17,0.645
251.17,0.655
251.18,0.65
251.18,0.615
251.18,0.575
251.19,0.53
251.19,0.47
251.2,0.38
251.2,0.285
251.2,0.21
251.21,0.155
251.21,0.12
251.22,0.095
251.22,0.085
251.22,0.075
251.23,0.075
251.23,0.07
251.24,0.065
251.24,0.065
251.24,0.06
251.25,0.06
251.25,0.06
251.26,0.06
251.26,0.06
251.26,0.06
251.27,0.06
251.27,0.06
251.28,0.06
251.28,0.06
251.28,0.055
251.29,0.05
251.29,0.05
251.3,0.045
251.3,0.045
251.3,0.045
251.31,0.04
251.31,0.04
251.32,0.04
251.32,0.03
251.32,0.03
251.33,0.025
251.33,0.02
251.34,0.01
251.34,-0.005
251.34,-0.015
251.35,-0.025
251.35,-0.03
251.36,-0.035
251.36,-0.045
251.36,-0.06
251.37,-0.08
251.37,-0.105
251.38,-0.115
251.38,-0.125
251.38,-0.125
251.39,-0.125
251.39,-0.135
251.4,-0.14
251.4,-0.15
251.4,-0.155
251.41,-0.16
251.41,-0.155
251.42,-0.155
251.42,-0.145
251.42,-0.155
251.43,-0.155
251.43,-0.14
251.44,-0.12
251.44,-0.1
251.44,-0.085
251.45,-0.085
251.45,-0.08
251.46,-0.065
251.46,-0.035
251.46,-0.015
251.47,0
251.47,0.01
251.48,0.02
251.48,0.025
251.48,0.04
251.49,0.04
251.49,0.05
251.5,0.065
251.5,0.08
251.5,0.08
251.51,0.085
251.51,0.085
251.52,0.085
251.52,0.085
251.52,0.085
251.53,0.085
251.53,0.09
251.54,0.09
251.54,0.085
251.54,0.085
251.55,0.085
251.55,0.08
251.56,0.08
251.56,0.085
251.56,0.085
251.57,0.085
251.57,0.085
251.58,0.085
251.58,0.085
251.58,0.085
251.59,0.08
251.59,0.08
251.6,0.08
251.6,0.075
251.6,0.075
251.61,0.07
251.61,0.07
251.62,0.07
251.62,0.06
251.62,0.055
251.63,0.055
251.63,0.055
251.64,0.065
251.64,0.06
251.64,0.06
251.65,0.06
251.65,0.055
251.66,0.055
251.66,0.055
251.66,0.055
251.67,0.055
251.67,0.055
251.68,0.05
251.68,0.055
251.68,0.055
251.69,0.055
251.69,0.055
251.7,0.055
251.7,0.055
251.7,0.055
251.71,0.05
251.71,0.05
251.72,0.05
251.72,0.05
251.72,0.05
251.73,0.05
251.73,0.055
251.74,0.055
251.74,0.055
251.74,0.055
251.75,0.055
251.75,0.055
251.76,0.06
251.76,0.06
251.76,0.06
251.77,0.065
251.77,0.06
251.78,0.055
251.78,0.06
251.78,0.06
251.79,0.055
251.79,0.055
251.8,0.06
251.8,0.055
251.8,0.055
251.81,0.055
251.81,0.055
251.82,0.055
251.82,0.055
251.82,0.05
251.83,0.05
251.83,0.055
251.84,0.055
251.84,0.05
251.84,0.05
251.85,0.05
251.85,0.05
251.86,0.05
251.86,0.05
251.86,0.055
251.87,0.055
251.87,0.05
251.88,0.055
251.88,0.05
251.88,0.05
251.89,0.05
251.89,0.055
251.9,0.05
251.9,0.05
251.9,0.055
251.91,0.06
251.91,0.055
251.92,0.055
251.92,0.06
251.92,0.06
251.93,0.065
251.93,0.07
251.94,0.095
251.94,0.12
251.94,0.14
251.95,0.16
251.95,0.17
251.96,0.17
251.96,0.18
251.96,0.185
251.97,0.185
251.97,0.185
251.98,0.16
251.98,0.135
251.98,0.115
251.99,0.105
251.99,0.095
252,0.095
252,0.09
252,0.085
252.01,0.08
252.01,0.08
252.02,0.075
252.02,0.08
252.02,0.07
252.03,0.055
252.03,0.055
252.04,0.055
252.04,0.055
252.04,0.05
252.05,0.06
252.05,0.055
252.06,0.055
252.06,0.05
252.06,0.05
252.07,0.045
252.07,0.045
252.08,0.045
252.08,0.05
252.08,0.05
252.09,0.065
252.09,0.085
252.1,0.09
252.1,0.095
252.1,0.07
252.11,0.02
252.11,-0.005
252.12,0.01
252.12,0.13
252.12,0.265
252.13,0.325
252.13,0.34
252.14,0.315
252.14,0.305
252.14,0.34
252.15,0.425
252.15,0.5
252.16,0.535
252.16,0.555
252.16,0.575
252.17,0.6
252.17,0.63
252.18,0.64
252.18,0.64
252.18,0.615
252.19,0.575
252.19,0.54
252.2,0.48
252.2,0.395
252.2,0.295
252.21,0.215
252.21,0.16
252.22,0.125
252.22,0.1
252.22,0.08
252.23,0.07
252.23,0.065
252.24,0.06
252.24,0.06
252.24,0.06
252.25,0.055
252.25,0.05
252.26,0.05
252.26,0.05
252.26,0.05
252.27,0.045
252.27,0.045
252.28,0.045
252.28,0.045
252.28,0.045
252.29,0.04
252.29,0.04
252.3,0.04
252.3,0.04
252.3,0.035
252.31,0.03
252.31,0.025
252.32,0.025
252.32,0.02
252.32,0.02
252.33,0.02
252.33,0.02
252.34,0.015
252.34,0.005
252.34,0
252.35,-0.01
252.35,-0.01
252.36,-0.01
252.36,-0.02
252.36,-0.045
252.37,-0.055
252.37,-0.065
252.38,-0.065
252.38,-0.07
252.38,-0.095
252.39,-0.12
252.39,-0.13
252.4,-0.14
252.4,-0.135
252.4,-0.14
252.41,-0.15
252.41,-0.145
252.42,-0.15
252.42,-0.16
252.42,-0.155
252.43,-0.15
252.43,-0.14
252.44,-0.13
252.44,-0.115
252.44,-0.115
252.45,-0.1
252.45,-0.085
252.46,-0.075
252.46,-0.055
252.46,-0.035
252.47,-0.015
252.47,-0.01
252.48,-0.01
252.48,-0.005
252.48,0.01
252.49,0.04
252.49,0.035
252.5,0.035
252.5,0.05
252.5,0.065
252.51,0.07
252.51,0.08
252.52,0.08
252.52,0.08
252.52,0.08
252.53,0.085
252.53,0.085
252.54,0.085
252.54,0.09
252.54,0.09
252.55,0.09
252.55,0.095
252.56,0.095
252.56,0.09
252.56,0.1
252.57,0.1
252.57,0.1
252.58,0.1
252.58,0.095
252.58,0.09
252.59,0.09
252.59,0.09
252.6,0.085
252.6,0.085
252.6,0.085
252.61,0.085
252.61,0.085
252.62,0.085
252.62,0.08
252.62,0.075
252.63,0.08
252.63,0.08
252.64,0.085
252.64,0.08
252.64,0.075
252.65,0.08
252.65,0.08
252.66,0.08
252.66,0.075
252.66,0.075
252.67,0.075
252.67,0.075
252.68,0.07
252.68,0.07
252.68,0.07
252.69,0.07
252.69,0.07
252.7,0.07
252.7,0.07
252.7,0.065
252.71,0.065
252.71,0.065
252.72,0.065
252.72,0.065
252.72,0.065
252.73,0.065
252.73,0.065
252.74,0.06
252.74,0.06
252.74,0.065
252.75,0.06
252.75,0.06
252.76,0.055
252.76,0.055
252.76,0.055
252.77,0.06
252.77,0.065
252.78,0.065
252.78,0.065
252.78,0.06
252.79,0.055
252.79,0.06
252.8,0.06
252.8,0.06
252.8,0.06
252.81,0.065
252.81,0.065
252.82,0.07
252.82,0.065
252.82,0.06
252.83,0.06
252.83,0.06
252.84,0.06
252.84,0.06
252.84,0.06
252.85,0.06
252.85,0.06
252.86,0.06
252.86,0.06
252.86,0.06
252.87,0.06
252.87,0.065
252.88,0.065
252.88,0.06
252.88,0.06
252.89,0.06
252.89,0.055
252.9,0.055
252.9,0.065
252.9,0.065
252.91,0.06
252.91,0.06
252.92,0.06
252.92,0.065
252.92,0.065
252.93,0.08
252.93,0.105
252.94,0.12
252.94,0.135
252.94,0.135
252.95,0.145
252.95,0.145
252.96,0.175
252.96,0.215
252.96,0.215
252.97,0.215
252.97,0.185
252.98,0.155
252.98,0.14
252.98,0.125
252.99,0.115
252.99,0.105
253,0.095
253,0.095
253,0.09
253.01,0.09
253.01,0.09
253.02,0.09
253.02,0.09
253.02,0.08
253.03,0.065
253.03,0.055
253.04,0.055
253.04,0.06
253.04,0.06
253.05,0.055
253.05,0.055
253.06,0.055
253.06,0.055
253.06,0.05
253.07,0.045
253.07,0.045
253.08,0.05
253.08,0.055
253.08,0.06
253.09,0.07
253.09,0.085
253.1,0.08
253.1,0.09
253.1,0.065
253.11,0.015
253.11,0
253.12,0.02
253.12,0.125
253.12,0.245
253.13,0.315
253.13,0.335
253.14,0.33
253.14,0.315
253.14,0.32
253.15,0.39
253.15,0.495
253.16,0.56
253.16,0.58
253.16,0.59
253.17,0.595
253.17,0.62
253.18,0.65
253.18,0.665
253.18,0.64
253.19,0.59
253.19,0.54
253.2,0.49
253.2,0.425
253.2,0.345
253.21,0.265
253.21,0.2
253.22,0.135
253.22,0.095
253.22,0.08
253.23,0.07
253.23,0.065
253.24,0.06
253.24,0.055
253.24,0.055
253.25,0.05
253.25,0.05
253.26,0.045
253.26,0.04
253.26,0.04
253.27,0.04
253.27,0.04
253.28,0.04
253.28,0.035
253.28,0.035
253.29,0.03
253.29,0.025
253.3,0.03
253.3,0.03
253.3,0.03
253.31,0.03
253.31,0.025
253.32,0.025
253.32,0.03
253.32,0.03
253.33,0.03
253.33,0.03
253.34,0.03
253.34,0.025
253.34,0.015
253.35,-0.005
253.35,-0.02
253.36,-0.025
253.36,-0.025
253.36,-0.035
253.37,-0.05
253.37,-0.065
253.38,-0.07
253.38,-0.075
253.38,-0.085
253.39,-0.09
253.39,-0.105
253.4,-0.115
253.4,-0.115
253.4,-0.115
253.41,-0.13
253.41,-0.14
253.42,-0.15
253.42,-0.15
253.42,-0.15
253.43,-0.15
253.43,-0.145
253.44,-0.145
253.44,-0.14
253.44,-0.13
253.45,-0.125
253.45,-0.115
253.46,-0.08
253.46,-0.06
253.46,-0.05
253.47,-0.04
253.47,-0.03
253.48,-0.005
253.48,0.005
253.48,0.02
253.49,0.035
253.49,0.05
253.5,0.06
253.5,0.06
253.5,0.06
253.51,0.065
253.51,0.065
253.52,0.08
253.52,0.08
253.52,0.085
253.53,0.08
253.53,0.085
253.54,0.08
253.54,0.075
253.54,0.08
253.55,0.085
253.55,0.085
253.56,0.08
253.56,0.08
253.56,0.085
253.57,0.085
253.57,0.085
253.58,0.09
253.58,0.09
253.58,0.085
253.59,0.09
253.59,0.09
253.6,0.085
253.6,0.08
253.6,0.075
253.61,0.07
253.61,0.07
253.62,0.07
253.62,0.07
253.62,0.07
253.63,0.07
253.63,0.07
253.64,0.07
253.64,0.07
253.64,0.07
253.65,0.065
253.65,0.065
253.66,0.06
253.66,0.06
253.66,0.065
253.67,0.065
253.67,0.06
253.68,0.065
253.68,0.06
253.68,0.06
253.69,0.065
253.69,0.06
253.7,0.06
253.7,0.055
253.7,0.055
253.71,0.055
253.71,0.055
253.72,0.055
253.72,0.055
253.72,0.055
253.73,0.055
253.73,0.055
253.74,0.05
253.74,0.05
253.74,0.055
253.75,0.05
253.75,0.05
253.76,0.05
253.76,0.05
253.76,0.05
253.77,0.045
253.77,0.045
253.78,0.05
253.78,0.05
253.78,0.045
253.79,0.045
253.79,0.05
253.8,0.05
253.8,0.05
253.8,0.05
253.81,0.05
253.81,0.05
253.82,0.05
253.82,0.05
253.82,0.05
253.83,0.05
253.83,0.05
253.84,0.05
253.84,0.04
253.84,0.035
253.85,0.035
253.85,0.035
253.86,0.035
253.86,0.035
253.86,0.035
253.87,0.04
253.87,0.045
253.88,0.055
253.88,0.055
253.88,0.055
253.89,0.055
253.89,0.05
253.9,0.05
253.9,0.045
253.9,0.05
253.91,0.05
253.91,0.05
253.92,0.05
253.92,0.05
253.92,0.05
253.93,0.05
253.93,0.06
253.94,0.085
253.94,0.1
253.94,0.11
253.95,0.11
253.95,0.125
253.96,0.14
253.96,0.155
253.96,0.165
253.97,0.18
253.97,0.185
253.98,0.17
253.98,0.125
253.98,0.095
253.99,0.095
253.99,0.1
254,0.09
254,0.07
254,0.065
254.01,0.055
254.01,0.055
254.02,0.07
254.02,0.06
254.02,0.055
254.03,0.055
254.03,0.055
254.04,0.055
254.04,0.05
254.04,0.05
254.05,0.045
254.05,0.045
254.06,0.045
254.06,0.04
254.06,0.035
254.07,0.035
254.07,0.035
254.08,0.035
254.08,0.035
254.08,0.03
254.09,0.025
254.09,0.03
254.1,0.045
254.1,0.065
254.1,0.075
254.11,0.06
254.11,0.005
254.12,-0.02
254.12,-0.015
254.12,0.07
254.13,0.19
254.13,0.275
254.14,0.31
254.14,0.315
254.14,0.315
254.15,0.32
254.15,0.38
254.16,0.46
254.16,0.525
254.16,0.56
254.17,0.57
254.17,0.58
254.18,0.605
254.18,0.625
254.18,0.635
254.19,0.615
254.19,0.575
254.2,0.535
254.2,0.485
254.2,0.415
254.21,0.34
254.21,0.255
254.22,0.175
254.22,0.11
254.22,0.08
254.23,0.065
254.23,0.055
254.24,0.05
254.24,0.04
254.24,0.035
254.25,0.03
254.25,0.03
254.26,0.03
254.26,0.03
254.26,0.025
254.27,0.02
254.27,0.025
254.28,0.025
254.28,0.025
254.28,0.025
254.29,0.025
254.29,0.02
254.3,0.015
254.3,0.02
254.3,0.02
254.31,0.015
254.31,0.005
254.32,0.005
254.32,0.005
254.32,0.005
254.33,0.005
254.33,0
254.34,0
254.34,0
254.34,0
254.35,-0.005
254.35,-0.005
254.36,-0.005
254.36,-0.015
254.36,-0.02
254.37,-0.03
254.37,-0.05
254.38,-0.065
254.38,-0.085
254.38,-0.1
254.39,-0.115
254.39,-0.125
254.4,-0.125
254.4,-0.125
254.4,-0.125
254.41,-0.14
254.41,-0.15
254.42,-0.16
254.42,-0.16
254.42,-0.16
254.43,-0.16
254.43,-0.16
254.44,-0.16
254.44,-0.15
254.44,-0.14
254.45,-0.145
254.45,-0.135
254.46,-0.13
254.46,-0.11
254.46,-0.09
254.47,-0.08
254.47,-0.05
254.48,-0.025
254.48,-0.005
254.48,0
254.49,0.01
254.49,0.015
254.5,0.03
254.5,0.05
254.5,0.06
254.51,0.065
254.51,0.065
254.52,0.065
254.52,0.065
254.52,0.07
254.53,0.075
254.53,0.075
254.54,0.08
254.54,0.075
254.54,0.085
254.55,0.085
254.55,0.085
254.56,0.085
254.56,0.085
254.56,0.085
254.57,0.085
254.57,0.085
254.58,0.08
254.58,0.08
254.58,0.08
254.59,0.07
254.59,0.065
254.6,0.06
254.6,0.055
254.6,0.055
254.61,0.055
254.61,0.055
254.62,0.055
254.62,0.055
254.62,0.055
254.63,0.055
254.63,0.06
254.64,0.06
254.64,0.06
254.64,0.06
254.65,0.06
254.65,0.06
254.66,0.065
254.66,0.065
254.66,0.065
254.67,0.06
254.67,0.055
254.68,0.055
254.68,0.05
254.68,0.05
254.69,0.045
254.69,0.045
254.7,0.05
254.7,0.055
254.7,0.055
254.71,0.055
254.71,0.05
254.72,0.055
254.72,0.06
254.72,0.065
254.73,0.06
254.73,0.055
254.74,0.055
254.74,0.055
254.74,0.055
254.75,0.06
254.75,0.06
254.76,0.055
254.76,0.055
254.76,0.06
254.77,0.06
254.77,0.055
254.78,0.055
254.78,0.055
254.78,0.055
254.79,0.055
254.79,0.055
254.8,0.055
254.8,0.06
254.8,0.06
254.81,0.055
254.81,0.055
254.82,0.055
254.82,0.05
254.82,0.05
254.83,0.055
254.83,0.055
254.84,0.055
254.84,0.055
254.84,0.05
254.85,0.05
254.85,0.05
254.86,0.05
254.86,0.05
254.86,0.055
254.87,0.055
254.87,0.05
254.88,0.05
254.88,0.055
254.88,0.055
254.89,0.055
254.89,0.055
254.9,0.055
254.9,0.055
254.9,0.055
254.91,0.055
254.91,0.055
254.92,0.06
254.92,0.055
254.92,0.055
254.93,0.075
254.93,0.105
254.94,0.125
254.94,0.135
254.94,0.135
254.95,0.145
254.95,0.16
254.96,0.18
254.96,0.19
254.96,0.195
254.97,0.19
254.97,0.175
254.98,0.16
254.98,0.145
254.98,0.135
254.99,0.13
254.99,0.11
255,0.09
