5401 2
180,-0.275
180,-0.265
180.01,-0.255
180.01,-0.265
180.01,-0.255
180.01,-0.255
180.02,-0.265
180.02,-0.255
180.02,-0.23
180.03,-0.23
180.03,-0.245
180.03,-0.255
180.03,-0.26
180.04,-0.24
180.04,-0.23
180.04,-0.225
180.04,-0.225
180.05,-0.225
180.05,-0.23
180.05,-0.225
180.06,-0.22
180.06,-0.21
180.06,-0.23
180.06,-0.25
180.07,-0.255
180.07,-0.25
180.07,-0.235
180.07,-0.24
180.08,-0.24
180.08,-0.26
180.08,-0.27
180.09,-0.255
180.09,-0.245
180.09,-0.255
180.09,-0.265
180.1,-0.275
180.1,-0.27
180.1,-0.27
180.11,-0.255
180.11,-0.255
180.11,-0.27
180.11,-0.28
180.12,-0.28
180.12,-0.27
180.12,-0.26
180.12,-0.26
180.13,-0.255
180.13,-0.285
180.13,-0.285
180.14,-0.27
180.14,-0.265
180.14,-0.255
180.14,-0.265
180.15,-0.26
180.15,-0.27
180.15,-0.265
180.16,-0.265
180.16,-0.265
180.16,-0.28
180.16,-0.31
180.17,-0.335
180.17,-0.345
180.17,-0.35
180.18,-0.375
180.18,-0.36
180.18,-0.315
180.18,-0.22
180.19,-0.09
180.19,0.01
180.19,0.125
180.19,0.215
180.2,0.315
180.2,0.42
180.2,0.525
180.21,0.51
180.21,0.35
180.21,0.05
180.21,-0.22
180.22,-0.32
180.22,-0.3
180.22,-0.275
180.22,-0.28
180.23,-0.285
180.23,-0.275
180.23,-0.28
180.24,-0.275
180.24,-0.275
180.24,-0.275
180.24,-0.285
180.25,-0.3
180.25,-0.295
180.25,-0.29
180.26,-0.295
180.26,-0.28
180.26,-0.29
180.26,-0.295
180.27,-0.3
180.27,-0.295
180.27,-0.28
180.28,-0.285
180.28,-0.295
180.28,-0.295
180.28,-0.3
180.29,-0.29
180.29,-0.28
180.29,-0.29
180.29,-0.29
180.3,-0.3
180.3,-0.3
180.3,-0.29
180.31,-0.28
180.31,-0.27
180.31,-0.28
180.31,-0.295
180.32,-0.305
180.32,-0.28
180.32,-0.28
180.32,-0.28
180.33,-0.28
180.33,-0.28
180.33,-0.29
180.34,-0.285
180.34,-0.275
180.34,-0.275
180.34,-0.295
180.35,-0.29
180.35,-0.305
180.35,-0.29
180.36,-0.27
180.36,-0.275
180.36,-0.285
180.36,-0.29
180.37,-0.305
180.37,-0.295
180.37,-0.285
180.38,-0.275
180.38,-0.29
180.38,-0.31
180.38,-0.295
180.39,-0.305
180.39,-0.29
180.39,-0.3
180.39,-0.305
180.4,-0.315
180.4,-0.315
180.4,-0.305
180.41,-0.3
180.41,-0.31
180.41,-0.305
180.41,-0.32
180.42,-0.325
180.42,-0.325
180.42,-0.325
180.43,-0.33
180.43,-0.335
180.43,-0.35
180.43,-0.36
180.44,-0.355
180.44,-0.36
180.44,-0.365
180.44,-0.375
180.45,-0.385
180.45,-0.4
180.45,-0.39
180.46,-0.39
180.46,-0.385
180.46,-0.395
180.46,-0.42
180.47,-0.425
180.47,-0.42
180.47,-0.4
180.47,-0.405
180.48,-0.415
180.48,-0.415
180.48,-0.425
180.49,-0.41
180.49,-0.395
180.49,-0.395
180.49,-0.38
180.5,-0.385
180.5,-0.385
180.5,-0.36
180.51,-0.34
180.51,-0.325
180.51,-0.315
180.51,-0.32
180.52,-0.305
180.52,-0.28
180.52,-0.25
180.53,-0.24
180.53,-0.235
180.53,-0.25
180.53,-0.24
180.54,-0.23
180.54,-0.215
180.54,-0.205
180.54,-0.205
180.55,-0.205
180.55,-0.21
180.55,-0.22
180.56,-0.205
180.56,-0.2
180.56,-0.195
180.56,-0.21
180.57,-0.205
180.57,-0.2
180.57,-0.185
180.57,-0.195
180.58,-0.195
180.58,-0.195
180.58,-0.2
180.59,-0.205
180.59,-0.19
180.59,-0.2
180.59,-0.2
180.6,-0.21
180.6,-0.205
180.6,-0.205
180.61,-0.2
180.61,-0.195
180.61,-0.21
180.61,-0.225
180.62,-0.22
180.62,-0.205
180.62,-0.2
180.62,-0.2
180.63,-0.205
180.63,-0.225
180.63,-0.225
180.64,-0.225
180.64,-0.21
180.64,-0.2
180.64,-0.215
180.65,-0.225
180.65,-0.23
180.65,-0.225
180.66,-0.22
180.66,-0.215
180.66,-0.22
180.66,-0.235
180.67,-0.235
180.67,-0.225
180.67,-0.225
180.68,-0.23
180.68,-0.225
180.68,-0.23
180.68,-0.255
180.69,-0.23
180.69,-0.22
180.69,-0.235
180.69,-0.225
180.7,-0.245
180.7,-0.255
180.7,-0.245
180.71,-0.235
180.71,-0.23
180.71,-0.24
180.71,-0.245
180.72,-0.245
180.72,-0.24
180.72,-0.24
180.72,-0.235
180.73,-0.235
180.73,-0.255
180.73,-0.255
180.74,-0.255
180.74,-0.24
180.74,-0.235
180.74,-0.24
180.75,-0.255
180.75,-0.245
180.75,-0.25
180.76,-0.235
180.76,-0.235
180.76,-0.25
180.76,-0.245
180.77,-0.255
180.77,-0.24
180.77,-0.235
180.78,-0.23
180.78,-0.235
180.78,-0.24
180.78,-0.25
180.79,-0.24
180.79,-0.23
180.79,-0.225
180.79,-0.23
180.8,-0.24
180.8,-0.25
180.8,-0.24
180.81,-0.235
180.81,-0.23
180.81,-0.225
180.81,-0.24
180.82,-0.235
180.82,-0.24
180.82,-0.225
180.82,-0.225
180.83,-0.245
180.83,-0.245
180.83,-0.26
180.84,-0.245
180.84,-0.23
180.84,-0.215
180.84,-0.215
180.85,-0.22
180.85,-0.235
180.85,-0.2
180.86,-0.205
180.86,-0.21
180.86,-0.21
180.86,-0.21
180.87,-0.205
180.87,-0.195
180.87,-0.18
180.88,-0.185
180.88,-0.175
180.88,-0.185
180.88,-0.195
180.89,-0.185
180.89,-0.18
180.89,-0.175
180.89,-0.195
180.9,-0.2
180.9,-0.225
180.9,-0.215
180.91,-0.2
180.91,-0.195
180.91,-0.205
180.91,-0.225
180.92,-0.225
180.92,-0.23
180.92,-0.225
180.93,-0.235
180.93,-0.23
180.93,-0.24
180.93,-0.24
180.94,-0.225
180.94,-0.22
180.94,-0.22
180.94,-0.23
180.95,-0.235
180.95,-0.25
180.95,-0.235
180.96,-0.235
180.96,-0.235
180.96,-0.235
180.96,-0.25
180.97,-0.24
180.97,-0.25
180.97,-0.245
180.97,-0.24
180.98,-0.24
180.98,-0.245
180.98,-0.255
180.99,-0.25
180.99,-0.24
180.99,-0.255
180.99,-0.285
181,-0.32
181,-0.34
181,-0.345
181.01,-0.365
181.01,-0.345
181.01,-0.28
181.01,-0.185
181.02,-0.065
181.02,0.045
181.02,0.16
181.03,0.275
181.03,0.395
181.03,0.48
181.03,0.51
181.04,0.415
181.04,0.17
181.04,-0.115
181.04,-0.27
181.05,-0.285
181.05,-0.255
181.05,-0.265
181.06,-0.26
181.06,-0.265
181.06,-0.26
181.06,-0.29
181.07,-0.295
181.07,-0.27
181.07,-0.265
181.07,-0.27
181.08,-0.275
181.08,-0.285
181.08,-0.29
181.09,-0.28
181.09,-0.27
181.09,-0.285
181.09,-0.28
181.1,-0.285
181.1,-0.29
181.1,-0.28
181.11,-0.27
181.11,-0.275
181.11,-0.285
181.11,-0.29
181.12,-0.29
181.12,-0.27
181.12,-0.265
181.12,-0.27
181.13,-0.27
181.13,-0.29
181.13,-0.295
181.14,-0.285
181.14,-0.275
181.14,-0.265
181.14,-0.275
181.15,-0.275
181.15,-0.285
181.15,-0.285
181.16,-0.27
181.16,-0.255
181.16,-0.27
181.16,-0.27
181.17,-0.275
181.17,-0.275
181.17,-0.265
181.18,-0.27
181.18,-0.27
181.18,-0.285
181.18,-0.285
181.19,-0.27
181.19,-0.26
181.19,-0.27
181.19,-0.27
181.2,-0.29
181.2,-0.3
181.2,-0.295
181.21,-0.285
181.21,-0.285
181.21,-0.3
181.21,-0.31
181.22,-0.305
181.22,-0.32
181.22,-0.305
181.22,-0.295
181.23,-0.3
181.23,-0.305
181.23,-0.335
181.24,-0.32
181.24,-0.325
181.24,-0.335
181.24,-0.345
181.25,-0.35
181.25,-0.355
181.25,-0.35
181.26,-0.36
181.26,-0.36
181.26,-0.375
181.26,-0.385
181.27,-0.405
181.27,-0.39
181.27,-0.385
181.28,-0.39
181.28,-0.395
181.28,-0.41
181.28,-0.425
181.29,-0.405
181.29,-0.405
181.29,-0.395
181.29,-0.39
181.3,-0.4
181.3,-0.405
181.3,-0.39
181.31,-0.39
181.31,-0.385
181.31,-0.385
181.31,-0.405
181.32,-0.395
181.32,-0.385
181.32,-0.355
181.32,-0.35
181.33,-0.345
181.33,-0.335
181.33,-0.32
181.34,-0.305
181.34,-0.285
181.34,-0.285
181.34,-0.27
181.35,-0.265
181.35,-0.255
181.35,-0.24
181.36,-0.23
181.36,-0.23
181.36,-0.23
181.36,-0.23
181.37,-0.24
181.37,-0.22
181.37,-0.205
181.38,-0.215
181.38,-0.22
181.38,-0.225
181.38,-0.225
181.39,-0.225
181.39,-0.225
181.39,-0.215
181.39,-0.21
181.4,-0.225
181.4,-0.225
181.4,-0.22
181.41,-0.22
181.41,-0.225
181.41,-0.22
181.41,-0.225
181.42,-0.225
181.42,-0.22
181.42,-0.21
181.43,-0.215
181.43,-0.22
181.43,-0.24
181.43,-0.24
181.44,-0.22
181.44,-0.21
181.44,-0.23
181.44,-0.22
181.45,-0.235
181.45,-0.245
181.45,-0.24
181.46,-0.23
181.46,-0.23
181.46,-0.23
181.46,-0.25
181.47,-0.25
181.47,-0.24
181.47,-0.23
181.47,-0.235
181.48,-0.235
181.48,-0.25
181.48,-0.25
181.49,-0.25
181.49,-0.23
181.49,-0.255
181.49,-0.245
181.5,-0.265
181.5,-0.265
181.5,-0.26
181.51,-0.24
181.51,-0.24
181.51,-0.245
181.51,-0.26
181.52,-0.255
181.52,-0.25
181.52,-0.24
181.53,-0.235
181.53,-0.245
181.53,-0.26
181.53,-0.265
181.54,-0.25
181.54,-0.235
181.54,-0.245
181.54,-0.245
181.55,-0.255
181.55,-0.255
181.55,-0.245
181.56,-0.235
181.56,-0.23
181.56,-0.235
181.56,-0.24
181.57,-0.245
181.57,-0.24
181.57,-0.235
181.57,-0.23
181.58,-0.23
181.58,-0.24
181.58,-0.25
181.59,-0.225
181.59,-0.225
181.59,-0.235
181.59,-0.23
181.6,-0.245
181.6,-0.235
181.6,-0.24
181.61,-0.225
181.61,-0.22
181.61,-0.23
181.61,-0.235
181.62,-0.25
181.62,-0.24
181.62,-0.225
181.62,-0.225
181.63,-0.225
181.63,-0.24
181.63,-0.24
181.64,-0.225
181.64,-0.215
181.64,-0.215
181.64,-0.215
181.65,-0.22
181.65,-0.215
181.65,-0.205
181.66,-0.2
181.66,-0.19
181.66,-0.18
181.66,-0.2
181.67,-0.2
181.67,-0.195
181.67,-0.19
181.68,-0.195
181.68,-0.185
181.68,-0.18
181.68,-0.185
181.69,-0.18
181.69,-0.155
181.69,-0.17
181.69,-0.175
181.7,-0.19
181.7,-0.195
181.7,-0.18
181.71,-0.18
181.71,-0.175
181.71,-0.19
181.71,-0.2
181.72,-0.22
181.72,-0.21
181.72,-0.21
181.72,-0.2
181.73,-0.21
181.73,-0.225
181.73,-0.23
181.74,-0.235
181.74,-0.23
181.74,-0.235
181.74,-0.225
181.75,-0.245
181.75,-0.235
181.75,-0.255
181.76,-0.23
181.76,-0.23
181.76,-0.235
181.76,-0.24
181.77,-0.25
181.77,-0.245
181.77,-0.23
181.78,-0.235
181.78,-0.24
181.78,-0.25
181.78,-0.265
181.79,-0.255
181.79,-0.235
181.79,-0.24
181.79,-0.245
181.8,-0.27
181.8,-0.315
181.8,-0.34
181.81,-0.37
181.81,-0.37
181.81,-0.37
181.81,-0.325
181.82,-0.24
181.82,-0.125
181.82,-0.04
181.82,0.04
181.83,0.135
181.83,0.22
181.83,0.31
181.84,0.395
181.84,0.385
181.84,0.23
181.84,-0.04
181.85,-0.295
181.85,-0.37
181.85,-0.325
181.86,-0.275
181.86,-0.28
181.86,-0.285
181.86,-0.285
181.87,-0.28
181.87,-0.255
181.87,-0.26
181.88,-0.27
181.88,-0.265
181.88,-0.295
181.88,-0.295
181.89,-0.285
181.89,-0.265
181.89,-0.28
181.89,-0.27
181.9,-0.29
181.9,-0.285
181.9,-0.275
181.91,-0.27
181.91,-0.27
181.91,-0.28
181.91,-0.3
181.92,-0.29
181.92,-0.29
181.92,-0.26
181.93,-0.27
181.93,-0.27
181.93,-0.28
181.93,-0.29
181.94,-0.285
181.94,-0.28
181.94,-0.275
181.94,-0.27
181.95,-0.285
181.95,-0.29
181.95,-0.285
181.96,-0.275
181.96,-0.27
181.96,-0.275
181.96,-0.29
181.97,-0.285
181.97,-0.28
181.97,-0.28
181.97,-0.265
181.98,-0.265
181.98,-0.285
181.98,-0.295
181.99,-0.285
181.99,-0.28
181.99,-0.27
181.99,-0.28
182,-0.285
182,-0.3
182,-0.295
182.01,-0.285
182.01,-0.3
182.01,-0.285
182.01,-0.3
182.02,-0.315
182.02,-0.31
182.02,-0.305
182.03,-0.295
182.03,-0.305
182.03,-0.32
182.03,-0.33
182.04,-0.33
182.04,-0.3
182.04,-0.305
182.04,-0.315
182.05,-0.325
182.05,-0.335
182.05,-0.32
182.06,-0.34
182.06,-0.335
182.06,-0.36
182.06,-0.35
182.07,-0.355
182.07,-0.355
182.07,-0.355
182.07,-0.365
182.08,-0.385
182.08,-0.395
182.08,-0.4
182.09,-0.41
182.09,-0.39
182.09,-0.39
182.09,-0.405
182.1,-0.405
182.1,-0.43
182.1,-0.415
182.11,-0.405
182.11,-0.4
182.11,-0.395
182.11,-0.41
182.12,-0.41
182.12,-0.395
182.12,-0.385
182.12,-0.37
182.13,-0.35
182.13,-0.34
182.13,-0.34
182.14,-0.32
182.14,-0.305
182.14,-0.3
182.14,-0.295
182.15,-0.29
182.15,-0.295
182.15,-0.29
182.16,-0.27
182.16,-0.25
182.16,-0.265
182.16,-0.27
182.17,-0.275
182.17,-0.265
182.17,-0.24
182.18,-0.245
182.18,-0.255
182.18,-0.255
182.18,-0.26
182.19,-0.26
182.19,-0.255
182.19,-0.255
182.19,-0.255
182.2,-0.255
182.2,-0.26
182.2,-0.255
182.21,-0.245
182.21,-0.25
182.21,-0.255
182.21,-0.26
182.22,-0.27
182.22,-0.265
182.22,-0.265
182.22,-0.265
182.23,-0.26
182.23,-0.28
182.23,-0.275
182.24,-0.26
182.24,-0.245
182.24,-0.25
182.24,-0.265
182.25,-0.27
182.25,-0.275
182.25,-0.27
182.26,-0.26
182.26,-0.265
182.26,-0.26
182.26,-0.28
182.27,-0.285
182.27,-0.285
182.27,-0.275
182.28,-0.285
182.28,-0.28
182.28,-0.29
182.28,-0.31
182.29,-0.295
182.29,-0.285
182.29,-0.28
182.29,-0.275
182.3,-0.3
182.3,-0.3
182.3,-0.305
182.31,-0.3
182.31,-0.295
182.31,-0.29
182.31,-0.31
182.32,-0.305
182.32,-0.31
182.32,-0.3
182.32,-0.31
182.33,-0.315
182.33,-0.325
182.33,-0.33
182.34,-0.315
182.34,-0.3
182.34,-0.29
182.34,-0.305
182.35,-0.305
182.35,-0.31
182.35,-0.315
182.36,-0.32
182.36,-0.315
182.36,-0.315
182.36,-0.305
182.37,-0.305
182.37,-0.31
182.37,-0.3
182.38,-0.305
182.38,-0.3
182.38,-0.305
182.38,-0.31
182.39,-0.32
182.39,-0.305
182.39,-0.31
182.39,-0.305
182.4,-0.335
182.4,-0.34
182.4,-0.33
182.41,-0.305
182.41,-0.305
182.41,-0.31
182.41,-0.305
182.42,-0.32
182.42,-0.31
182.42,-0.32
182.43,-0.31
182.43,-0.32
182.43,-0.33
182.43,-0.325
182.44,-0.31
182.44,-0.3
182.44,-0.29
182.44,-0.3
182.45,-0.32
182.45,-0.315
182.45,-0.295
182.46,-0.29
182.46,-0.28
182.46,-0.285
182.46,-0.295
182.47,-0.3
182.47,-0.295
182.47,-0.275
182.47,-0.275
182.48,-0.28
182.48,-0.29
182.48,-0.295
182.49,-0.29
182.49,-0.285
182.49,-0.3
182.49,-0.3
182.5,-0.315
182.5,-0.32
182.5,-0.315
182.51,-0.3
182.51,-0.3
182.51,-0.315
182.51,-0.32
182.52,-0.35
182.52,-0.345
182.52,-0.33
182.53,-0.335
182.53,-0.33
182.53,-0.35
182.53,-0.36
182.54,-0.34
182.54,-0.33
182.54,-0.34
182.54,-0.33
182.55,-0.35
182.55,-0.355
182.55,-0.34
182.56,-0.335
182.56,-0.33
182.56,-0.345
182.56,-0.355
182.57,-0.355
182.57,-0.34
182.57,-0.33
182.57,-0.335
182.58,-0.325
182.58,-0.335
182.58,-0.35
182.59,-0.345
182.59,-0.35
182.59,-0.36
182.59,-0.38
182.6,-0.41
182.6,-0.445
182.6,-0.445
182.61,-0.435
182.61,-0.39
182.61,-0.32
182.61,-0.225
182.62,-0.15
182.62,-0.085
182.62,0.005
182.62,0.105
182.63,0.21
182.63,0.295
182.63,0.26
182.64,0.085
182.64,-0.185
182.64,-0.395
182.64,-0.46
182.65,-0.455
182.65,-0.42
182.65,-0.4
182.66,-0.385
182.66,-0.385
182.66,-0.385
182.66,-0.385
182.67,-0.39
182.67,-0.38
182.67,-0.365
182.68,-0.375
182.68,-0.365
182.68,-0.38
182.68,-0.385
182.69,-0.38
182.69,-0.35
182.69,-0.345
182.69,-0.355
182.7,-0.37
182.7,-0.39
182.7,-0.385
182.71,-0.37
182.71,-0.36
182.71,-0.355
182.71,-0.37
182.72,-0.37
182.72,-0.36
182.72,-0.365
182.72,-0.36
182.73,-0.36
182.73,-0.365
182.73,-0.375
182.74,-0.37
182.74,-0.355
182.74,-0.345
182.74,-0.36
182.75,-0.365
182.75,-0.38
182.75,-0.36
182.76,-0.36
182.76,-0.345
182.76,-0.355
182.76,-0.365
182.77,-0.38
182.77,-0.375
182.77,-0.365
182.78,-0.36
182.78,-0.355
182.78,-0.35
182.78,-0.37
182.79,-0.355
182.79,-0.36
182.79,-0.36
182.79,-0.365
182.8,-0.36
182.8,-0.375
182.8,-0.37
182.81,-0.365
182.81,-0.355
182.81,-0.37
182.81,-0.375
182.82,-0.39
182.82,-0.385
182.82,-0.37
182.82,-0.37
182.83,-0.38
182.83,-0.41
182.83,-0.41
182.84,-0.405
182.84,-0.42
182.84,-0.4
182.84,-0.41
182.85,-0.43
182.85,-0.44
182.85,-0.445
182.86,-0.44
182.86,-0.435
182.86,-0.445
182.86,-0.465
182.87,-0.475
182.87,-0.475
182.87,-0.475
182.88,-0.475
182.88,-0.49
182.88,-0.5
182.88,-0.505
182.89,-0.495
182.89,-0.485
182.89,-0.47
182.89,-0.48
182.9,-0.495
182.9,-0.49
182.9,-0.47
182.91,-0.445
182.91,-0.445
182.91,-0.435
182.91,-0.44
182.92,-0.435
182.92,-0.415
182.92,-0.4
182.93,-0.385
182.93,-0.4
182.93,-0.395
182.93,-0.39
182.94,-0.365
182.94,-0.35
182.94,-0.33
182.94,-0.31
182.95,-0.32
182.95,-0.325
182.95,-0.31
182.96,-0.3
182.96,-0.29
182.96,-0.285
182.96,-0.305
182.97,-0.315
182.97,-0.295
182.97,-0.295
182.97,-0.29
182.98,-0.295
182.98,-0.29
182.98,-0.3
182.99,-0.295
182.99,-0.295
182.99,-0.29
182.99,-0.295
183,-0.3
183,-0.3
183,-0.305
183.01,-0.285
183.01,-0.29
183.01,-0.305
183.01,-0.305
183.02,-0.31
183.02,-0.295
183.02,-0.3
183.03,-0.3
183.03,-0.305
183.03,-0.31
183.03,-0.32
183.04,-0.305
183.04,-0.29
183.04,-0.305
183.04,-0.3
183.05,-0.305
183.05,-0.32
183.05,-0.315
183.06,-0.31
183.06,-0.295
183.06,-0.31
183.06,-0.32
183.07,-0.315
183.07,-0.315
183.07,-0.315
183.07,-0.305
183.08,-0.305
183.08,-0.32
183.08,-0.32
183.09,-0.32
183.09,-0.3
183.09,-0.295
183.09,-0.31
183.1,-0.32
183.1,-0.33
183.1,-0.325
183.11,-0.305
183.11,-0.31
183.11,-0.305
183.11,-0.315
183.12,-0.32
183.12,-0.315
183.12,-0.31
183.12,-0.295
183.13,-0.295
183.13,-0.315
183.13,-0.3
183.14,-0.3
183.14,-0.3
183.14,-0.295
183.14,-0.305
183.15,-0.305
183.15,-0.31
183.15,-0.295
183.16,-0.28
183.16,-0.285
183.16,-0.29
183.16,-0.315
183.17,-0.295
183.17,-0.295
183.17,-0.285
183.18,-0.285
183.18,-0.29
183.18,-0.295
183.18,-0.305
183.19,-0.3
183.19,-0.285
183.19,-0.285
183.19,-0.285
183.2,-0.3
183.2,-0.31
183.2,-0.305
183.21,-0.295
183.21,-0.28
183.21,-0.29
183.21,-0.285
183.22,-0.28
183.22,-0.27
183.22,-0.26
183.22,-0.255
183.23,-0.26
183.23,-0.265
183.23,-0.27
183.24,-0.26
183.24,-0.25
183.24,-0.24
183.24,-0.24
183.25,-0.25
183.25,-0.25
183.25,-0.235
183.26,-0.22
183.26,-0.225
183.26,-0.23
183.26,-0.24
183.27,-0.235
183.27,-0.235
183.27,-0.23
183.28,-0.235
183.28,-0.255
183.28,-0.25
183.28,-0.26
183.29,-0.26
183.29,-0.255
183.29,-0.25
183.29,-0.27
183.3,-0.285
183.3,-0.29
183.3,-0.29
183.31,-0.275
183.31,-0.265
183.31,-0.28
183.31,-0.285
183.32,-0.29
183.32,-0.285
183.32,-0.28
183.32,-0.28
183.33,-0.28
183.33,-0.29
183.33,-0.295
183.34,-0.3
183.34,-0.28
183.34,-0.275
183.34,-0.28
183.35,-0.295
183.35,-0.295
183.35,-0.295
183.36,-0.285
183.36,-0.295
183.36,-0.31
183.36,-0.355
183.37,-0.375
183.37,-0.385
183.37,-0.41
183.38,-0.405
183.38,-0.375
183.38,-0.295
183.38,-0.195
183.39,-0.08
183.39,0.015
183.39,0.075
183.39,0.125
183.4,0.205
183.4,0.28
183.4,0.36
183.41,0.45
183.41,0.545
183.41,0.62
183.41,0.64
183.42,0.55
183.42,0.29
183.42,-0.04
183.43,-0.26
183.43,-0.315
183.43,-0.31
183.43,-0.31
183.44,-0.31
183.44,-0.295
183.44,-0.3
183.44,-0.3
183.45,-0.3
183.45,-0.325
183.45,-0.315
183.46,-0.305
183.46,-0.31
183.46,-0.31
183.46,-0.33
183.47,-0.325
183.47,-0.325
183.47,-0.315
183.47,-0.3
183.48,-0.31
183.48,-0.31
183.48,-0.315
183.49,-0.32
183.49,-0.3
183.49,-0.29
183.49,-0.31
183.5,-0.305
183.5,-0.315
183.5,-0.31
183.51,-0.305
183.51,-0.305
183.51,-0.3
183.51,-0.31
183.52,-0.32
183.52,-0.305
183.52,-0.305
183.53,-0.3
183.53,-0.3
183.53,-0.305
183.53,-0.31
183.54,-0.3
183.54,-0.295
183.54,-0.295
183.54,-0.3
183.55,-0.31
183.55,-0.315
183.55,-0.305
183.56,-0.3
183.56,-0.295
183.56,-0.305
183.56,-0.315
183.57,-0.325
183.57,-0.31
183.57,-0.305
183.57,-0.31
183.58,-0.315
183.58,-0.315
183.58,-0.325
183.59,-0.325
183.59,-0.32
183.59,-0.315
183.59,-0.325
183.6,-0.335
183.6,-0.34
183.6,-0.345
183.61,-0.335
183.61,-0.335
183.61,-0.345
183.61,-0.355
183.62,-0.365
183.62,-0.365
183.62,-0.37
183.62,-0.37
183.63,-0.375
183.63,-0.4
183.63,-0.41
183.64,-0.415
183.64,-0.41
183.64,-0.42
183.64,-0.415
183.65,-0.435
183.65,-0.44
183.65,-0.445
183.66,-0.435
183.66,-0.435
183.66,-0.445
183.66,-0.46
183.67,-0.455
183.67,-0.44
183.67,-0.415
183.68,-0.425
183.68,-0.415
183.68,-0.425
183.68,-0.415
183.69,-0.4
183.69,-0.36
183.69,-0.355
183.69,-0.335
183.7,-0.335
183.7,-0.335
183.7,-0.315
183.71,-0.295
183.71,-0.28
183.71,-0.27
183.71,-0.265
183.72,-0.275
183.72,-0.26
183.72,-0.25
183.72,-0.235
183.73,-0.25
183.73,-0.26
183.73,-0.255
183.74,-0.245
183.74,-0.24
183.74,-0.23
183.74,-0.235
183.75,-0.245
183.75,-0.255
183.75,-0.25
183.76,-0.235
183.76,-0.235
183.76,-0.24
183.76,-0.245
183.77,-0.25
183.77,-0.255
183.77,-0.245
183.78,-0.24
183.78,-0.235
183.78,-0.25
183.78,-0.25
183.79,-0.25
183.79,-0.245
183.79,-0.245
183.79,-0.25
183.8,-0.255
183.8,-0.265
183.8,-0.26
183.81,-0.245
183.81,-0.25
183.81,-0.25
183.81,-0.27
183.82,-0.27
183.82,-0.265
183.82,-0.26
183.82,-0.245
183.83,-0.255
183.83,-0.275
183.83,-0.28
183.84,-0.285
183.84,-0.275
183.84,-0.265
183.84,-0.265
183.85,-0.28
183.85,-0.285
183.85,-0.29
183.86,-0.28
183.86,-0.275
183.86,-0.28
183.86,-0.28
183.87,-0.28
183.87,-0.275
183.87,-0.27
183.88,-0.265
183.88,-0.265
183.88,-0.285
183.88,-0.285
183.89,-0.29
183.89,-0.275
183.89,-0.27
183.89,-0.275
183.9,-0.28
183.9,-0.285
183.9,-0.285
183.91,-0.275
183.91,-0.265
183.91,-0.28
183.91,-0.28
183.92,-0.27
183.92,-0.28
183.92,-0.275
183.93,-0.27
183.93,-0.27
183.93,-0.27
183.93,-0.28
183.94,-0.275
183.94,-0.255
183.94,-0.265
183.94,-0.27
183.95,-0.28
183.95,-0.285
183.95,-0.27
183.96,-0.27
183.96,-0.255
183.96,-0.255
183.96,-0.265
183.97,-0.285
183.97,-0.275
183.97,-0.265
183.97,-0.26
183.98,-0.27
183.98,-0.275
183.98,-0.28
183.99,-0.275
183.99,-0.255
183.99,-0.25
183.99,-0.25
184,-0.25
184,-0.245
184,-0.24
184.01,-0.235
184.01,-0.225
184.01,-0.215
184.01,-0.23
184.02,-0.24
184.02,-0.225
184.02,-0.215
184.03,-0.21
184.03,-0.2
184.03,-0.2
184.03,-0.205
184.04,-0.205
184.04,-0.2
184.04,-0.19
184.04,-0.21
184.05,-0.2
184.05,-0.215
184.05,-0.21
184.06,-0.205
184.06,-0.205
184.06,-0.215
184.06,-0.24
184.07,-0.24
184.07,-0.24
184.07,-0.225
184.07,-0.235
184.08,-0.24
184.08,-0.255
184.08,-0.25
184.09,-0.26
184.09,-0.26
184.09,-0.235
184.09,-0.24
184.1,-0.26
184.1,-0.27
184.1,-0.265
184.11,-0.255
184.11,-0.245
184.11,-0.25
184.11,-0.255
184.12,-0.265
184.12,-0.255
184.12,-0.25
184.12,-0.25
184.13,-0.26
184.13,-0.26
184.13,-0.27
184.14,-0.265
184.14,-0.28
184.14,-0.305
184.14,-0.325
184.15,-0.365
184.15,-0.4
184.15,-0.415
184.16,-0.345
184.16,-0.275
184.16,-0.145
184.16,-0.03
184.17,0.055
184.17,0.185
184.17,0.315
184.18,0.435
184.18,0.555
184.18,0.6
184.18,0.485
184.19,0.215
184.19,-0.095
184.19,-0.28
184.19,-0.315
184.2,-0.3
184.2,-0.305
184.2,-0.29
184.21,-0.29
184.21,-0.275
184.21,-0.27
184.21,-0.29
184.22,-0.3
184.22,-0.31
184.22,-0.3
184.22,-0.285
184.23,-0.29
184.23,-0.295
184.23,-0.305
184.24,-0.295
184.24,-0.295
184.24,-0.3
184.24,-0.295
184.25,-0.295
184.25,-0.305
184.25,-0.295
184.26,-0.28
184.26,-0.28
184.26,-0.29
184.26,-0.29
184.27,-0.295
184.27,-0.29
184.27,-0.28
184.28,-0.27
184.28,-0.28
184.28,-0.295
184.28,-0.295
184.29,-0.29
184.29,-0.27
184.29,-0.275
184.29,-0.255
184.3,-0.28
184.3,-0.29
184.3,-0.285
184.31,-0.28
184.31,-0.28
184.31,-0.265
184.31,-0.27
184.32,-0.28
184.32,-0.28
184.32,-0.275
184.32,-0.275
184.33,-0.285
184.33,-0.28
184.33,-0.29
184.34,-0.28
184.34,-0.27
184.34,-0.275
184.34,-0.285
184.35,-0.295
184.35,-0.31
184.35,-0.29
184.36,-0.295
184.36,-0.27
184.36,-0.285
184.36,-0.295
184.37,-0.305
184.37,-0.31
184.37,-0.29
184.38,-0.295
184.38,-0.31
184.38,-0.315
184.38,-0.32
184.39,-0.32
184.39,-0.305
184.39,-0.31
184.39,-0.315
184.4,-0.335
184.4,-0.355
184.4,-0.34
184.41,-0.34
184.41,-0.335
184.41,-0.34
184.41,-0.36
184.42,-0.385
184.42,-0.38
184.42,-0.38
184.43,-0.375
184.43,-0.385
184.43,-0.39
184.43,-0.405
184.44,-0.4
184.44,-0.41
184.44,-0.395
184.44,-0.395
184.45,-0.41
184.45,-0.42
184.45,-0.405
184.46,-0.39
184.46,-0.39
184.46,-0.375
184.46,-0.38
184.47,-0.375
184.47,-0.36
184.47,-0.325
184.47,-0.325
184.48,-0.305
184.48,-0.3
184.48,-0.3
184.49,-0.29
184.49,-0.265
184.49,-0.25
184.49,-0.245
184.5,-0.245
184.5,-0.25
184.5,-0.235
184.51,-0.215
184.51,-0.22
184.51,-0.21
184.51,-0.225
184.52,-0.215
184.52,-0.225
184.52,-0.2
184.53,-0.185
184.53,-0.2
184.53,-0.215
184.53,-0.22
184.54,-0.215
184.54,-0.205
184.54,-0.205
184.54,-0.205
184.55,-0.21
184.55,-0.225
184.55,-0.21
184.56,-0.2
184.56,-0.205
184.56,-0.21
184.56,-0.215
184.57,-0.23
184.57,-0.225
184.57,-0.21
184.57,-0.215
184.58,-0.21
184.58,-0.235
184.58,-0.23
184.59,-0.235
184.59,-0.23
184.59,-0.215
184.59,-0.225
184.6,-0.23
184.6,-0.245
184.6,-0.225
184.61,-0.22
184.61,-0.225
184.61,-0.225
184.61,-0.23
184.62,-0.235
184.62,-0.225
184.62,-0.22
184.62,-0.23
184.63,-0.23
184.63,-0.24
184.63,-0.25
184.64,-0.235
184.64,-0.235
184.64,-0.235
184.64,-0.23
184.65,-0.24
184.65,-0.255
184.65,-0.25
184.66,-0.23
184.66,-0.215
184.66,-0.225
184.66,-0.24
184.67,-0.245
184.67,-0.255
184.67,-0.24
184.68,-0.23
184.68,-0.235
184.68,-0.235
184.68,-0.24
184.69,-0.245
184.69,-0.22
184.69,-0.215
184.69,-0.23
184.7,-0.25
184.7,-0.245
184.7,-0.25
184.71,-0.23
184.71,-0.23
184.71,-0.22
184.71,-0.23
184.72,-0.245
184.72,-0.24
184.72,-0.23
184.72,-0.215
184.73,-0.225
184.73,-0.235
184.73,-0.25
184.74,-0.23
184.74,-0.215
184.74,-0.205
184.74,-0.22
184.75,-0.22
184.75,-0.23
184.75,-0.225
184.76,-0.215
184.76,-0.21
184.76,-0.2
184.76,-0.22
184.77,-0.23
184.77,-0.22
184.77,-0.21
184.78,-0.22
184.78,-0.205
184.78,-0.215
184.78,-0.22
184.79,-0.215
184.79,-0.215
184.79,-0.195
184.79,-0.195
184.8,-0.215
184.8,-0.205
184.8,-0.195
184.81,-0.19
184.81,-0.18
184.81,-0.17
184.81,-0.18
184.82,-0.18
184.82,-0.18
184.82,-0.16
184.82,-0.16
184.83,-0.155
184.83,-0.17
184.83,-0.16
184.84,-0.15
184.84,-0.135
184.84,-0.13
184.84,-0.135
184.85,-0.145
184.85,-0.15
184.85,-0.14
184.86,-0.135
184.86,-0.135
184.86,-0.15
184.86,-0.165
184.87,-0.17
184.87,-0.175
184.87,-0.175
184.88,-0.175
184.88,-0.175
184.88,-0.17
184.88,-0.18
184.89,-0.185
184.89,-0.17
184.89,-0.175
184.89,-0.195
184.9,-0.215
184.9,-0.22
184.9,-0.21
184.91,-0.195
184.91,-0.19
184.91,-0.2
184.91,-0.205
184.92,-0.22
184.92,-0.205
184.92,-0.21
184.93,-0.21
184.93,-0.21
184.93,-0.215
184.93,-0.225
184.94,-0.21
184.94,-0.215
184.94,-0.2
184.94,-0.21
184.95,-0.23
184.95,-0.225
184.95,-0.225
184.96,-0.21
184.96,-0.21
184.96,-0.245
184.96,-0.275
184.97,-0.295
184.97,-0.315
184.97,-0.335
184.97,-0.355
184.98,-0.325
184.98,-0.285
184.98,-0.21
184.99,-0.1
184.99,-0.005
184.99,0.07
184.99,0.165
185,0.25
185,0.345
185,0.455
185.01,0.49
185.01,0.385
185.01,0.12
185.01,-0.155
185.02,-0.31
185.02,-0.315
185.02,-0.275
185.03,-0.25
185.03,-0.25
185.03,-0.26
185.03,-0.255
185.04,-0.24
185.04,-0.245
185.04,-0.25
185.04,-0.25
185.05,-0.245
185.05,-0.25
185.05,-0.24
185.06,-0.23
185.06,-0.225
185.06,-0.235
185.06,-0.245
185.07,-0.255
185.07,-0.25
185.07,-0.24
185.07,-0.24
185.08,-0.245
185.08,-0.245
185.08,-0.26
185.09,-0.255
185.09,-0.23
185.09,-0.24
185.09,-0.245
185.1,-0.25
185.1,-0.25
185.1,-0.245
185.11,-0.245
185.11,-0.24
185.11,-0.255
185.11,-0.255
185.12,-0.27
185.12,-0.255
185.12,-0.245
185.12,-0.235
185.13,-0.23
185.13,-0.25
185.13,-0.26
185.14,-0.255
185.14,-0.245
185.14,-0.235
185.14,-0.235
185.15,-0.245
185.15,-0.25
185.15,-0.245
185.16,-0.24
185.16,-0.24
185.16,-0.245
185.16,-0.24
185.17,-0.26
185.17,-0.24
185.17,-0.235
185.18,-0.235
185.18,-0.235
185.18,-0.25
185.18,-0.26
185.19,-0.255
185.19,-0.255
185.19,-0.24
185.19,-0.245
185.2,-0.255
185.2,-0.26
185.2,-0.265
185.21,-0.265
185.21,-0.245
185.21,-0.265
185.21,-0.27
185.22,-0.295
185.22,-0.275
185.22,-0.27
185.22,-0.26
185.23,-0.265
185.23,-0.28
185.23,-0.29
185.24,-0.295
185.24,-0.29
185.24,-0.285
185.24,-0.285
185.25,-0.285
185.25,-0.29
185.25,-0.265
185.26,-0.26
185.26,-0.26
185.26,-0.27
185.26,-0.295
185.27,-0.32
185.27,-0.315
185.27,-0.305
185.28,-0.305
185.28,-0.3
185.28,-0.315
185.28,-0.32
185.29,-0.335
185.29,-0.335
185.29,-0.32
185.29,-0.325
185.3,-0.335
185.3,-0.33
185.3,-0.33
185.31,-0.31
185.31,-0.31
185.31,-0.32
185.31,-0.33
185.32,-0.335
185.32,-0.315
185.32,-0.3
185.32,-0.285
185.33,-0.27
185.33,-0.28
185.33,-0.28
185.34,-0.275
185.34,-0.255
185.34,-0.23
185.34,-0.235
185.35,-0.24
185.35,-0.23
185.35,-0.225
185.36,-0.21
185.36,-0.2
185.36,-0.205
185.36,-0.215
185.37,-0.22
185.37,-0.205
185.37,-0.2
185.38,-0.185
185.38,-0.2
185.38,-0.215
185.38,-0.22
185.39,-0.225
185.39,-0.205
185.39,-0.2
185.39,-0.205
185.4,-0.205
185.4,-0.21
185.4,-0.22
185.41,-0.195
185.41,-0.2
185.41,-0.195
185.41,-0.215
185.42,-0.225
185.42,-0.215
185.42,-0.195
185.43,-0.2
185.43,-0.21
185.43,-0.215
185.43,-0.22
185.44,-0.22
185.44,-0.215
185.44,-0.22
185.44,-0.215
185.45,-0.22
185.45,-0.225
185.45,-0.225
185.46,-0.215
185.46,-0.21
185.46,-0.21
185.46,-0.22
185.47,-0.225
185.47,-0.22
185.47,-0.205
185.47,-0.2
185.48,-0.22
185.48,-0.21
185.48,-0.235
185.49,-0.24
185.49,-0.24
185.49,-0.245
185.49,-0.26
185.5,-0.27
185.5,-0.275
185.5,-0.25
185.51,-0.15
185.51,-0.01
185.51,0.15
185.51,0.27
185.52,0.345
185.52,0.43
185.52,0.525
185.53,0.605
185.53,0.595
185.53,0.395
185.53,0.005
185.54,-0.32
185.54,-0.455
185.54,-0.415
185.54,-0.33
185.55,-0.265
185.55,-0.255
185.55,-0.25
185.56,-0.25
185.56,-0.225
185.56,-0.22
185.56,-0.23
185.57,-0.225
185.57,-0.225
185.57,-0.21
185.57,-0.21
185.58,-0.205
185.58,-0.225
185.58,-0.23
185.59,-0.225
185.59,-0.215
185.59,-0.2
185.59,-0.205
185.6,-0.22
185.6,-0.21
185.6,-0.21
185.61,-0.205
185.61,-0.2
185.61,-0.215
185.61,-0.215
185.62,-0.23
185.62,-0.22
185.62,-0.21
185.62,-0.215
185.63,-0.215
185.63,-0.225
185.63,-0.225
185.64,-0.205
185.64,-0.205
185.64,-0.19
185.64,-0.185
185.65,-0.21
185.65,-0.23
185.65,-0.225
185.66,-0.215
185.66,-0.2
185.66,-0.195
185.66,-0.19
185.67,-0.21
185.67,-0.205
185.67,-0.21
185.68,-0.2
185.68,-0.205
185.68,-0.2
185.68,-0.205
185.69,-0.2
185.69,-0.205
185.69,-0.19
185.69,-0.19
185.7,-0.21
185.7,-0.225
185.7,-0.22
185.71,-0.2
185.71,-0.205
185.71,-0.215
185.71,-0.22
185.72,-0.245
185.72,-0.23
185.72,-0.23
185.72,-0.215
185.73,-0.22
185.73,-0.245
185.73,-0.245
185.74,-0.26
185.74,-0.25
185.74,-0.255
185.74,-0.255
185.75,-0.265
185.75,-0.27
185.75,-0.275
185.76,-0.285
185.76,-0.28
185.76,-0.295
185.76,-0.31
185.77,-0.345
185.77,-0.345
185.77,-0.345
185.78,-0.35
185.78,-0.355
185.78,-0.365
185.78,-0.37
185.79,-0.385
185.79,-0.375
185.79,-0.375
185.79,-0.38
185.8,-0.4
185.8,-0.415
185.8,-0.395
185.81,-0.39
185.81,-0.385
185.81,-0.37
185.81,-0.375
185.82,-0.38
185.82,-0.365
185.82,-0.335
185.82,-0.315
185.83,-0.31
185.83,-0.31
185.83,-0.305
185.84,-0.3
185.84,-0.295
185.84,-0.285
185.84,-0.265
185.85,-0.26
185.85,-0.27
185.85,-0.245
185.86,-0.235
185.86,-0.225
185.86,-0.22
185.86,-0.24
185.87,-0.245
185.87,-0.215
185.87,-0.215
185.88,-0.21
185.88,-0.215
185.88,-0.225
185.88,-0.235
185.89,-0.225
185.89,-0.22
185.89,-0.21
185.89,-0.205
185.9,-0.21
185.9,-0.215
185.9,-0.21
185.91,-0.205
185.91,-0.195
185.91,-0.21
185.91,-0.21
185.92,-0.22
185.92,-0.21
185.92,-0.2
185.93,-0.195
185.93,-0.215
185.93,-0.21
185.93,-0.215
185.94,-0.21
185.94,-0.205
185.94,-0.21
185.94,-0.215
185.95,-0.215
185.95,-0.23
185.95,-0.21
185.96,-0.2
185.96,-0.205
185.96,-0.2
185.96,-0.205
185.97,-0.225
185.97,-0.215
185.97,-0.215
185.97,-0.2
185.98,-0.2
185.98,-0.21
185.98,-0.22
185.99,-0.23
185.99,-0.225
185.99,-0.205
185.99,-0.21
186,-0.21
186,-0.23
186,-0.22
186.01,-0.21
186.01,-0.205
186.01,-0.21
186.01,-0.215
186.02,-0.235
186.02,-0.215
186.02,-0.205
186.03,-0.205
186.03,-0.21
186.03,-0.22
186.03,-0.24
186.04,-0.225
186.04,-0.21
186.04,-0.195
186.04,-0.195
186.05,-0.21
186.05,-0.23
186.05,-0.22
186.06,-0.21
186.06,-0.21
186.06,-0.2
186.06,-0.215
186.07,-0.22
186.07,-0.21
186.07,-0.215
186.07,-0.205
186.08,-0.21
186.08,-0.22
186.08,-0.225
186.09,-0.215
186.09,-0.21
186.09,-0.185
186.09,-0.2
186.1,-0.195
186.1,-0.215
186.1,-0.21
186.11,-0.21
186.11,-0.2
186.11,-0.205
186.11,-0.225
186.12,-0.225
186.12,-0.21
186.12,-0.2
186.12,-0.205
186.13,-0.21
186.13,-0.215
186.13,-0.215
186.14,-0.205
186.14,-0.2
186.14,-0.19
186.14,-0.19
186.15,-0.205
186.15,-0.21
186.15,-0.2
186.16,-0.195
186.16,-0.19
186.16,-0.19
186.16,-0.205
186.17,-0.2
186.17,-0.19
186.17,-0.2
186.18,-0.185
186.18,-0.185
186.18,-0.2
186.18,-0.195
186.19,-0.19
186.19,-0.18
186.19,-0.175
186.19,-0.18
186.2,-0.19
186.2,-0.2
186.2,-0.185
186.21,-0.175
186.21,-0.165
186.21,-0.18
186.21,-0.18
186.22,-0.2
186.22,-0.195
186.22,-0.185
186.22,-0.17
186.23,-0.185
186.23,-0.175
186.23,-0.18
186.24,-0.175
186.24,-0.175
186.24,-0.18
186.24,-0.18
186.25,-0.19
186.25,-0.195
186.25,-0.175
186.26,-0.165
186.26,-0.15
186.26,-0.155
186.26,-0.155
186.27,-0.165
186.27,-0.16
186.27,-0.14
186.28,-0.125
186.28,-0.14
186.28,-0.14
186.28,-0.15
186.29,-0.145
186.29,-0.13
186.29,-0.125
186.29,-0.125
186.3,-0.13
186.3,-0.14
186.3,-0.135
186.31,-0.12
186.31,-0.105
186.31,-0.11
186.31,-0.105
186.32,-0.135
186.32,-0.13
186.32,-0.115
186.32,-0.13
186.33,-0.13
186.33,-0.145
186.33,-0.15
186.34,-0.15
186.34,-0.14
186.34,-0.14
186.34,-0.15
186.35,-0.15
186.35,-0.165
186.35,-0.16
186.36,-0.16
186.36,-0.15
186.36,-0.155
186.36,-0.175
186.37,-0.185
186.37,-0.175
186.37,-0.165
186.38,-0.16
186.38,-0.155
186.38,-0.16
186.38,-0.17
186.39,-0.17
186.39,-0.16
186.39,-0.16
186.39,-0.16
186.4,-0.165
186.4,-0.165
186.4,-0.165
186.41,-0.16
186.41,-0.15
186.41,-0.15
186.41,-0.165
186.42,-0.18
186.42,-0.18
186.42,-0.21
186.43,-0.2
186.43,-0.225
186.43,-0.255
186.43,-0.28
186.44,-0.29
186.44,-0.28
186.44,-0.22
186.44,-0.11
186.45,-0.02
186.45,0.075
186.45,0.165
186.46,0.255
186.46,0.35
186.46,0.48
186.46,0.58
186.47,0.635
186.47,0.535
186.47,0.27
186.47,-0.035
186.48,-0.24
186.48,-0.285
186.48,-0.245
186.49,-0.22
186.49,-0.205
186.49,-0.195
186.49,-0.19
186.5,-0.19
186.5,-0.19
186.5,-0.19
186.51,-0.195
186.51,-0.185
186.51,-0.19
186.51,-0.205
186.52,-0.21
186.52,-0.2
186.52,-0.185
186.53,-0.18
186.53,-0.185
186.53,-0.19
186.53,-0.2
186.54,-0.205
186.54,-0.19
186.54,-0.185
186.54,-0.175
186.55,-0.18
186.55,-0.195
186.55,-0.195
186.56,-0.19
186.56,-0.17
186.56,-0.18
186.56,-0.19
186.57,-0.19
186.57,-0.18
186.57,-0.175
186.57,-0.175
186.58,-0.185
186.58,-0.185
186.58,-0.195
186.59,-0.19
186.59,-0.185
186.59,-0.18
186.59,-0.175
186.6,-0.185
186.6,-0.19
186.6,-0.2
186.61,-0.18
186.61,-0.18
186.61,-0.18
186.61,-0.185
186.62,-0.195
186.62,-0.185
186.62,-0.18
186.62,-0.185
186.63,-0.18
186.63,-0.2
186.63,-0.205
186.64,-0.205
186.64,-0.195
186.64,-0.185
186.64,-0.195
186.65,-0.21
186.65,-0.22
186.65,-0.215
186.66,-0.215
186.66,-0.2
186.66,-0.205
186.66,-0.22
186.67,-0.22
186.67,-0.235
186.67,-0.24
186.68,-0.23
186.68,-0.245
186.68,-0.24
186.68,-0.255
186.69,-0.245
186.69,-0.25
186.69,-0.24
186.69,-0.27
186.7,-0.275
186.7,-0.29
186.7,-0.28
186.71,-0.29
186.71,-0.285
186.71,-0.29
186.71,-0.305
186.72,-0.315
186.72,-0.31
186.72,-0.33
186.72,-0.32
186.73,-0.33
186.73,-0.34
186.73,-0.345
186.74,-0.355
186.74,-0.335
186.74,-0.335
186.74,-0.34
186.75,-0.335
186.75,-0.33
186.75,-0.31
186.76,-0.295
186.76,-0.28
186.76,-0.26
186.76,-0.265
186.77,-0.265
186.77,-0.24
186.77,-0.22
186.78,-0.185
186.78,-0.185
186.78,-0.175
186.78,-0.175
186.79,-0.17
186.79,-0.16
186.79,-0.13
186.79,-0.125
186.8,-0.13
186.8,-0.145
186.8,-0.145
186.81,-0.12
186.81,-0.12
186.81,-0.115
186.81,-0.115
186.82,-0.13
186.82,-0.12
186.82,-0.1
186.82,-0.105
186.83,-0.105
186.83,-0.12
186.83,-0.135
186.84,-0.12
186.84,-0.12
186.84,-0.105
186.84,-0.11
186.85,-0.115
186.85,-0.12
186.85,-0.12
186.86,-0.115
186.86,-0.11
186.86,-0.12
186.86,-0.13
186.87,-0.135
186.87,-0.13
186.87,-0.12
186.88,-0.1
186.88,-0.12
186.88,-0.135
186.88,-0.15
186.89,-0.14
186.89,-0.14
186.89,-0.12
186.89,-0.12
186.9,-0.15
186.9,-0.155
186.9,-0.15
186.91,-0.15
186.91,-0.14
186.91,-0.135
186.91,-0.15
186.92,-0.16
186.92,-0.16
186.92,-0.16
186.93,-0.16
186.93,-0.15
186.93,-0.155
186.93,-0.16
186.94,-0.16
186.94,-0.155
186.94,-0.145
186.94,-0.15
186.95,-0.165
186.95,-0.17
186.95,-0.18
186.96,-0.165
186.96,-0.165
186.96,-0.165
186.96,-0.165
186.97,-0.17
186.97,-0.17
186.97,-0.16
186.97,-0.16
186.98,-0.17
186.98,-0.175
186.98,-0.17
186.99,-0.175
186.99,-0.16
186.99,-0.155
186.99,-0.17
187,-0.18
187,-0.18
187,-0.175
187.01,-0.155
187.01,-0.17
187.01,-0.16
187.01,-0.17
187.02,-0.18
187.02,-0.17
187.02,-0.17
187.03,-0.165
187.03,-0.16
187.03,-0.18
187.03,-0.18
187.04,-0.165
187.04,-0.175
187.04,-0.165
187.04,-0.16
187.05,-0.18
187.05,-0.18
187.05,-0.16
187.06,-0.16
187.06,-0.15
187.06,-0.15
187.06,-0.18
187.07,-0.175
187.07,-0.185
187.07,-0.17
187.07,-0.165
187.08,-0.165
187.08,-0.165
187.08,-0.18
187.09,-0.18
187.09,-0.17
187.09,-0.165
187.09,-0.17
187.1,-0.17
187.1,-0.175
187.1,-0.155
187.11,-0.16
187.11,-0.13
187.11,-0.14
187.11,-0.145
187.12,-0.15
187.12,-0.135
187.12,-0.12
187.12,-0.12
187.13,-0.115
187.13,-0.125
187.13,-0.14
187.14,-0.145
187.14,-0.13
187.14,-0.115
187.14,-0.115
187.15,-0.12
187.15,-0.125
187.15,-0.115
187.16,-0.095
187.16,-0.09
187.16,-0.11
187.16,-0.125
187.17,-0.13
187.17,-0.125
187.17,-0.13
187.18,-0.13
187.18,-0.135
187.18,-0.135
187.18,-0.135
187.19,-0.155
187.19,-0.14
187.19,-0.155
187.19,-0.155
187.2,-0.16
187.2,-0.155
187.2,-0.17
187.21,-0.155
187.21,-0.16
187.21,-0.17
187.21,-0.175
187.22,-0.18
187.22,-0.18
187.22,-0.17
187.22,-0.16
187.23,-0.17
187.23,-0.17
187.23,-0.185
187.24,-0.19
187.24,-0.175
187.24,-0.17
187.24,-0.16
187.25,-0.19
187.25,-0.19
187.25,-0.18
187.26,-0.175
187.26,-0.185
187.26,-0.2
187.26,-0.235
187.27,-0.265
187.27,-0.285
187.27,-0.31
187.28,-0.32
187.28,-0.3
187.28,-0.225
187.28,-0.12
187.29,-0.005
187.29,0.11
187.29,0.17
187.29,0.235
187.3,0.29
187.3,0.39
187.3,0.51
187.31,0.615
187.31,0.715
187.31,0.74
187.31,0.64
187.32,0.38
187.32,0.04
187.32,-0.195
187.32,-0.265
187.33,-0.25
187.33,-0.21
187.33,-0.24
187.34,-0.23
187.34,-0.21
187.34,-0.2
187.34,-0.2
187.35,-0.225
187.35,-0.235
187.35,-0.235
187.36,-0.23
187.36,-0.215
187.36,-0.21
187.36,-0.22
187.37,-0.24
187.37,-0.225
187.37,-0.225
187.38,-0.23
187.38,-0.22
187.38,-0.23
187.38,-0.225
187.39,-0.235
187.39,-0.21
187.39,-0.2
187.39,-0.215
187.4,-0.225
187.4,-0.24
187.4,-0.225
187.41,-0.22
187.41,-0.21
187.41,-0.215
187.41,-0.235
187.42,-0.24
187.42,-0.24
187.42,-0.22
187.43,-0.21
187.43,-0.205
187.43,-0.22
187.43,-0.225
187.44,-0.23
187.44,-0.22
187.44,-0.215
187.44,-0.225
187.45,-0.23
187.45,-0.235
187.45,-0.22
187.46,-0.22
187.46,-0.21
187.46,-0.21
187.46,-0.25
187.47,-0.235
187.47,-0.24
187.47,-0.24
187.47,-0.23
187.48,-0.225
187.48,-0.235
187.48,-0.25
187.49,-0.245
187.49,-0.245
187.49,-0.245
187.49,-0.245
187.5,-0.255
187.5,-0.265
187.5,-0.275
187.51,-0.265
187.51,-0.275
187.51,-0.275
187.51,-0.285
187.52,-0.295
187.52,-0.305
187.52,-0.3
187.53,-0.3
187.53,-0.305
187.53,-0.31
187.53,-0.325
187.54,-0.335
187.54,-0.33
187.54,-0.325
187.54,-0.335
187.55,-0.345
187.55,-0.355
187.55,-0.37
187.56,-0.36
187.56,-0.355
187.56,-0.36
187.56,-0.36
187.57,-0.37
187.57,-0.375
187.57,-0.365
187.57,-0.35
187.58,-0.355
187.58,-0.355
187.58,-0.355
187.59,-0.34
187.59,-0.315
187.59,-0.3
187.59,-0.295
187.6,-0.285
187.6,-0.285
187.6,-0.26
187.61,-0.24
187.61,-0.23
187.61,-0.21
187.61,-0.22
187.62,-0.225
187.62,-0.205
187.62,-0.195
187.62,-0.195
187.63,-0.19
187.63,-0.185
187.63,-0.2
187.64,-0.19
187.64,-0.185
187.64,-0.17
187.64,-0.17
187.65,-0.195
187.65,-0.19
187.65,-0.19
187.66,-0.18
187.66,-0.185
187.66,-0.18
187.66,-0.18
187.67,-0.19
187.67,-0.19
187.67,-0.185
187.68,-0.19
187.68,-0.18
187.68,-0.19
187.68,-0.185
187.69,-0.19
187.69,-0.195
187.69,-0.18
187.69,-0.19
187.7,-0.195
187.7,-0.205
187.7,-0.205
187.71,-0.195
187.71,-0.195
187.71,-0.195
187.71,-0.2
187.72,-0.21
187.72,-0.21
187.72,-0.2
187.72,-0.185
187.73,-0.195
187.73,-0.215
187.73,-0.225
187.74,-0.23
187.74,-0.22
187.74,-0.215
187.74,-0.21
187.75,-0.22
187.75,-0.22
187.75,-0.215
187.76,-0.22
187.76,-0.215
187.76,-0.215
187.76,-0.225
187.77,-0.225
187.77,-0.225
187.77,-0.22
187.78,-0.225
187.78,-0.22
187.78,-0.235
187.78,-0.24
187.79,-0.23
187.79,-0.22
187.79,-0.21
187.79,-0.225
187.8,-0.23
187.8,-0.23
187.8,-0.235
187.81,-0.225
187.81,-0.215
187.81,-0.23
187.81,-0.225
187.82,-0.25
187.82,-0.235
187.82,-0.22
187.82,-0.21
187.83,-0.205
187.83,-0.23
187.83,-0.235
187.84,-0.225
187.84,-0.225
187.84,-0.215
187.84,-0.21
187.85,-0.215
187.85,-0.225
187.85,-0.22
187.86,-0.21
187.86,-0.215
187.86,-0.22
187.86,-0.215
187.87,-0.215
187.87,-0.22
187.87,-0.225
187.88,-0.2
187.88,-0.215
187.88,-0.215
187.88,-0.215
187.89,-0.21
187.89,-0.2
187.89,-0.205
187.89,-0.2
187.9,-0.22
187.9,-0.225
187.9,-0.215
187.91,-0.19
187.91,-0.195
187.91,-0.205
187.91,-0.21
187.92,-0.22
187.92,-0.215
187.92,-0.22
187.93,-0.21
187.93,-0.205
187.93,-0.2
187.93,-0.21
187.94,-0.205
187.94,-0.195
187.94,-0.18
187.94,-0.18
187.95,-0.19
187.95,-0.19
187.95,-0.195
187.96,-0.175
187.96,-0.175
187.96,-0.185
187.96,-0.185
187.97,-0.175
187.97,-0.175
187.97,-0.155
187.97,-0.155
187.98,-0.17
187.98,-0.185
187.98,-0.175
187.99,-0.18
187.99,-0.165
187.99,-0.165
187.99,-0.175
188,-0.2
188,-0.205
188,-0.2
188.01,-0.195
188.01,-0.19
188.01,-0.195
188.01,-0.22
188.02,-0.22
188.02,-0.22
188.02,-0.23
188.03,-0.21
188.03,-0.215
188.03,-0.22
188.03,-0.235
188.04,-0.235
188.04,-0.23
188.04,-0.225
188.04,-0.225
188.05,-0.225
188.05,-0.24
188.05,-0.23
188.06,-0.22
188.06,-0.21
188.06,-0.23
188.06,-0.245
188.07,-0.25
188.07,-0.245
188.07,-0.24
188.07,-0.24
188.08,-0.255
188.08,-0.295
188.08,-0.335
188.09,-0.345
188.09,-0.36
188.09,-0.38
188.09,-0.39
188.1,-0.37
188.1,-0.32
188.1,-0.235
188.11,-0.135
188.11,-0.065
188.11,0.005
188.11,0.06
188.12,0.145
188.12,0.25
188.12,0.34
188.12,0.44
188.13,0.49
188.13,0.4
188.13,0.15
188.14,-0.15
188.14,-0.305
188.14,-0.325
188.14,-0.29
188.15,-0.28
188.15,-0.29
188.15,-0.29
188.16,-0.28
188.16,-0.275
188.16,-0.27
188.16,-0.29
188.17,-0.295
188.17,-0.295
188.17,-0.285
188.18,-0.285
188.18,-0.28
188.18,-0.29
188.18,-0.3
188.19,-0.29
188.19,-0.275
188.19,-0.28
188.19,-0.28
188.2,-0.29
188.2,-0.3
188.2,-0.305
188.21,-0.295
188.21,-0.28
188.21,-0.29
188.21,-0.3
188.22,-0.3
188.22,-0.305
188.22,-0.295
188.22,-0.29
188.23,-0.28
188.23,-0.305
188.23,-0.305
188.24,-0.29
188.24,-0.285
188.24,-0.295
188.24,-0.295
188.25,-0.305
188.25,-0.295
188.25,-0.3
188.26,-0.285
188.26,-0.29
188.26,-0.305
188.26,-0.305
188.27,-0.315
188.27,-0.315
188.27,-0.295
188.28,-0.3
188.28,-0.3
188.28,-0.31
188.28,-0.32
188.29,-0.305
188.29,-0.3
188.29,-0.305
188.29,-0.3
188.3,-0.305
188.3,-0.32
188.3,-0.32
188.31,-0.315
188.31,-0.33
188.31,-0.325
188.31,-0.335
188.32,-0.345
188.32,-0.35
188.32,-0.345
188.32,-0.35
188.33,-0.36
188.33,-0.36
188.33,-0.37
188.34,-0.38
188.34,-0.37
188.34,-0.365
188.34,-0.375
188.35,-0.39
188.35,-0.41
188.35,-0.41
188.36,-0.405
188.36,-0.42
188.36,-0.415
188.36,-0.42
188.37,-0.435
188.37,-0.44
188.37,-0.44
188.38,-0.435
188.38,-0.44
188.38,-0.43
188.38,-0.445
188.39,-0.445
188.39,-0.445
188.39,-0.435
188.39,-0.43
188.4,-0.43
188.4,-0.43
188.4,-0.425
188.41,-0.395
188.41,-0.38
188.41,-0.36
188.41,-0.355
188.42,-0.345
188.42,-0.33
188.42,-0.315
188.43,-0.305
188.43,-0.3
188.43,-0.3
188.43,-0.295
188.44,-0.295
188.44,-0.285
188.44,-0.265
188.44,-0.275
188.45,-0.275
188.45,-0.28
188.45,-0.28
188.46,-0.275
188.46,-0.265
188.46,-0.27
188.46,-0.275
188.47,-0.29
188.47,-0.29
188.47,-0.265
188.47,-0.26
188.48,-0.265
188.48,-0.27
188.48,-0.285
188.49,-0.29
188.49,-0.275
188.49,-0.255
188.49,-0.265
188.5,-0.285
188.5,-0.295
188.5,-0.295
188.51,-0.285
188.51,-0.27
188.51,-0.28
188.51,-0.29
188.52,-0.305
188.52,-0.29
188.52,-0.295
188.53,-0.285
188.53,-0.3
188.53,-0.3
188.53,-0.31
188.54,-0.295
188.54,-0.285
188.54,-0.28
188.54,-0.29
188.55,-0.305
188.55,-0.32
188.55,-0.325
188.56,-0.315
188.56,-0.305
188.56,-0.305
188.56,-0.31
188.57,-0.32
188.57,-0.33
188.57,-0.33
188.57,-0.325
188.58,-0.33
188.58,-0.315
188.58,-0.315
188.59,-0.325
188.59,-0.31
188.59,-0.31
188.59,-0.305
188.6,-0.315
188.6,-0.325
188.6,-0.34
188.61,-0.32
188.61,-0.32
188.61,-0.33
188.61,-0.335
188.62,-0.34
188.62,-0.325
188.62,-0.32
188.62,-0.305
188.63,-0.31
188.63,-0.315
188.63,-0.335
188.64,-0.33
188.64,-0.325
188.64,-0.31
188.64,-0.315
188.65,-0.33
188.65,-0.335
188.65,-0.335
188.66,-0.33
188.66,-0.315
188.66,-0.32
188.66,-0.33
188.67,-0.325
188.67,-0.33
188.67,-0.32
188.68,-0.315
188.68,-0.325
188.68,-0.33
188.68,-0.345
188.69,-0.34
188.69,-0.34
188.69,-0.32
188.69,-0.325
188.7,-0.335
188.7,-0.34
188.7,-0.34
188.71,-0.315
188.71,-0.31
188.71,-0.31
188.71,-0.305
188.72,-0.3
188.72,-0.3
188.72,-0.29
188.72,-0.285
188.73,-0.28
188.73,-0.295
188.73,-0.3
188.74,-0.3
188.74,-0.29
188.74,-0.28
188.74,-0.28
188.75,-0.29
188.75,-0.28
188.75,-0.29
188.76,-0.28
188.76,-0.28
188.76,-0.28
188.76,-0.28
188.77,-0.295
188.77,-0.295
188.77,-0.285
188.78,-0.28
188.78,-0.3
188.78,-0.325
188.78,-0.32
188.79,-0.325
188.79,-0.305
188.79,-0.3
188.79,-0.315
188.8,-0.335
188.8,-0.35
188.8,-0.345
188.81,-0.34
188.81,-0.325
188.81,-0.335
188.81,-0.34
188.82,-0.345
188.82,-0.355
188.82,-0.355
188.82,-0.34
188.83,-0.35
188.83,-0.355
188.83,-0.35
188.84,-0.35
188.84,-0.345
188.84,-0.325
188.84,-0.34
188.85,-0.35
188.85,-0.365
188.85,-0.355
188.86,-0.35
188.86,-0.34
188.86,-0.36
188.86,-0.38
188.87,-0.425
188.87,-0.43
188.87,-0.45
188.88,-0.44
188.88,-0.44
188.88,-0.375
188.88,-0.29
188.89,-0.18
188.89,-0.095
188.89,-0.01
188.89,0.07
188.9,0.175
188.9,0.29
188.9,0.375
188.91,0.345
188.91,0.14
188.91,-0.175
188.91,-0.43
188.92,-0.515
188.92,-0.495
188.92,-0.435
188.93,-0.395
188.93,-0.4
188.93,-0.395
188.93,-0.385
188.94,-0.38
188.94,-0.385
188.94,-0.36
188.94,-0.38
188.95,-0.375
188.95,-0.37
188.95,-0.37
188.96,-0.375
188.96,-0.375
188.96,-0.37
188.96,-0.38
188.97,-0.39
188.97,-0.38
188.97,-0.365
188.97,-0.36
188.98,-0.365
188.98,-0.37
188.98,-0.38
188.99,-0.38
188.99,-0.36
188.99,-0.35
188.99,-0.345
189,-0.365
189,-0.37
189,-0.37
189.01,-0.355
189.01,-0.355
189.01,-0.36
189.01,-0.355
189.02,-0.37
189.02,-0.355
189.02,-0.35
189.03,-0.34
189.03,-0.34
189.03,-0.35
189.03,-0.355
189.04,-0.355
189.04,-0.335
189.04,-0.34
189.04,-0.35
189.05,-0.355
189.05,-0.36
189.05,-0.365
189.06,-0.355
189.06,-0.34
189.06,-0.35
189.06,-0.35
189.07,-0.36
189.07,-0.37
189.07,-0.35
189.07,-0.345
189.08,-0.35
189.08,-0.36
189.08,-0.37
189.09,-0.365
189.09,-0.36
189.09,-0.355
189.09,-0.35
189.1,-0.365
189.1,-0.375
189.1,-0.38
189.11,-0.39
189.11,-0.375
189.11,-0.385
189.11,-0.4
189.12,-0.405
189.12,-0.415
189.12,-0.41
189.12,-0.4
189.13,-0.42
189.13,-0.425
189.13,-0.44
189.14,-0.445
189.14,-0.43
189.14,-0.415
189.14,-0.43
189.15,-0.44
189.15,-0.455
189.15,-0.47
189.16,-0.465
189.16,-0.46
189.16,-0.48
189.16,-0.49
189.17,-0.495
189.17,-0.485
189.17,-0.475
189.18,-0.465
189.18,-0.48
189.18,-0.475
189.18,-0.48
189.19,-0.46
189.19,-0.435
189.19,-0.41
189.19,-0.4
189.2,-0.395
189.2,-0.395
189.2,-0.38
189.21,-0.36
189.21,-0.33
189.21,-0.335
189.21,-0.325
189.22,-0.315
189.22,-0.31
189.22,-0.305
189.22,-0.29
189.23,-0.28
189.23,-0.275
189.23,-0.285
189.24,-0.285
189.24,-0.255
189.24,-0.255
189.24,-0.26
189.25,-0.27
189.25,-0.27
189.25,-0.28
189.26,-0.25
189.26,-0.25
189.26,-0.25
189.26,-0.26
189.27,-0.275
189.27,-0.27
189.27,-0.265
189.28,-0.245
189.28,-0.245
189.28,-0.26
189.28,-0.265
189.29,-0.265
189.29,-0.27
189.29,-0.255
189.29,-0.25
189.3,-0.265
189.3,-0.265
189.3,-0.27
189.31,-0.25
189.31,-0.25
189.31,-0.25
189.31,-0.27
189.32,-0.275
189.32,-0.28
189.32,-0.265
189.32,-0.255
189.33,-0.26
189.33,-0.26
189.33,-0.285
189.34,-0.285
189.34,-0.27
189.34,-0.26
189.34,-0.265
189.35,-0.27
189.35,-0.285
189.35,-0.28
189.36,-0.275
189.36,-0.27
189.36,-0.27
189.36,-0.275
189.37,-0.285
189.37,-0.285
189.37,-0.27
189.38,-0.265
189.38,-0.28
189.38,-0.27
189.38,-0.29
189.39,-0.285
189.39,-0.28
189.39,-0.26
189.39,-0.26
189.4,-0.28
189.4,-0.285
189.4,-0.285
189.41,-0.27
189.41,-0.26
189.41,-0.26
189.41,-0.26
189.42,-0.27
189.42,-0.28
189.42,-0.265
189.43,-0.255
189.43,-0.255
189.43,-0.265
189.43,-0.275
189.44,-0.26
189.44,-0.25
189.44,-0.235
189.44,-0.255
189.45,-0.26
189.45,-0.27
189.45,-0.26
189.46,-0.255
189.46,-0.25
189.46,-0.25
189.46,-0.255
189.47,-0.27
189.47,-0.265
189.47,-0.255
189.47,-0.255
189.48,-0.265
189.48,-0.27
189.48,-0.275
189.49,-0.255
189.49,-0.255
189.49,-0.24
189.49,-0.255
189.5,-0.25
189.5,-0.27
189.5,-0.265
189.51,-0.26
189.51,-0.245
189.51,-0.26
189.51,-0.255
189.52,-0.27
189.52,-0.27
189.52,-0.25
189.53,-0.23
189.53,-0.24
189.53,-0.235
189.53,-0.23
189.54,-0.23
189.54,-0.22
189.54,-0.205
189.54,-0.215
189.55,-0.215
189.55,-0.22
189.55,-0.215
189.56,-0.2
189.56,-0.195
189.56,-0.185
189.56,-0.195
189.57,-0.205
189.57,-0.2
189.57,-0.195
189.57,-0.185
189.58,-0.185
189.58,-0.2
189.58,-0.22
189.59,-0.23
189.59,-0.215
189.59,-0.21
189.59,-0.21
189.6,-0.225
189.6,-0.235
189.6,-0.24
189.61,-0.23
189.61,-0.225
189.61,-0.225
189.61,-0.24
189.62,-0.245
189.62,-0.245
189.62,-0.235
189.62,-0.215
189.63,-0.23
189.63,-0.235
189.63,-0.235
189.64,-0.25
189.64,-0.24
189.64,-0.22
189.64,-0.23
189.65,-0.245
189.65,-0.245
189.65,-0.25
189.66,-0.235
189.66,-0.23
189.66,-0.235
189.66,-0.245
189.67,-0.25
189.67,-0.245
189.67,-0.24
189.68,-0.235
189.68,-0.25
189.68,-0.285
189.68,-0.32
189.69,-0.345
189.69,-0.355
189.69,-0.375
189.69,-0.38
189.7,-0.34
189.7,-0.245
189.7,-0.085
189.71,0.055
189.71,0.185
189.71,0.31
189.71,0.435
189.72,0.57
189.72,0.68
189.72,0.7
189.72,0.535
189.73,0.17
189.73,-0.16
189.73,-0.31
189.74,-0.3
189.74,-0.265
189.74,-0.26
189.74,-0.265
189.75,-0.275
189.75,-0.28
189.75,-0.285
189.76,-0.29
189.76,-0.27
189.76,-0.275
189.76,-0.275
189.77,-0.295
189.77,-0.3
189.77,-0.285
189.78,-0.275
189.78,-0.28
189.78,-0.28
189.78,-0.295
189.79,-0.295
189.79,-0.285
189.79,-0.275
189.79,-0.285
189.8,-0.295
189.8,-0.295
189.8,-0.29
189.81,-0.285
189.81,-0.27
189.81,-0.27
189.81,-0.285
189.82,-0.285
189.82,-0.29
189.82,-0.275
189.82,-0.27
189.83,-0.275
189.83,-0.28
189.83,-0.285
189.84,-0.285
189.84,-0.27
189.84,-0.275
189.84,-0.275
189.85,-0.28
189.85,-0.285
189.85,-0.295
189.86,-0.285
189.86,-0.275
189.86,-0.275
189.86,-0.285
189.87,-0.285
189.87,-0.295
189.87,-0.29
189.88,-0.275
189.88,-0.275
189.88,-0.275
189.88,-0.29
189.89,-0.295
189.89,-0.295
189.89,-0.285
189.89,-0.28
189.9,-0.295
189.9,-0.315
189.9,-0.31
189.91,-0.305
189.91,-0.295
189.91,-0.3
189.91,-0.31
189.92,-0.32
189.92,-0.33
189.92,-0.315
189.93,-0.315
189.93,-0.33
189.93,-0.335
189.93,-0.35
189.94,-0.36
189.94,-0.36
189.94,-0.355
189.94,-0.355
189.95,-0.37
189.95,-0.385
189.95,-0.385
189.96,-0.385
189.96,-0.38
189.96,-0.39
189.96,-0.4
189.97,-0.4
189.97,-0.405
189.97,-0.4
189.97,-0.38
189.98,-0.395
189.98,-0.4
189.98,-0.395
189.99,-0.425
189.99,-0.42
189.99,-0.42
189.99,-0.43
190,-0.42
190,-0.43
190,-0.42
190.01,-0.395
190.01,-0.395
190.01,-0.39
190.01,-0.38
190.02,-0.36
190.02,-0.35
190.02,-0.33
190.03,-0.295
190.03,-0.295
190.03,-0.295
190.03,-0.295
190.04,-0.275
190.04,-0.265
190.04,-0.24
190.04,-0.225
190.05,-0.24
190.05,-0.225
190.05,-0.23
190.06,-0.22
190.06,-0.21
190.06,-0.205
190.06,-0.22
190.07,-0.215
190.07,-0.22
190.07,-0.215
190.07,-0.21
190.08,-0.2
190.08,-0.215
190.08,-0.205
190.09,-0.215
190.09,-0.2
190.09,-0.2
190.09,-0.195
190.1,-0.21
190.1,-0.205
190.1,-0.215
190.11,-0.195
190.11,-0.19
190.11,-0.19
190.11,-0.21
190.12,-0.22
190.12,-0.23
190.12,-0.2
190.12,-0.21
190.13,-0.21
190.13,-0.21
190.13,-0.215
190.14,-0.23
190.14,-0.225
190.14,-0.21
190.14,-0.215
190.15,-0.225
190.15,-0.22
190.15,-0.22
190.16,-0.22
190.16,-0.215
190.16,-0.225
190.16,-0.235
190.17,-0.245
190.17,-0.24
190.17,-0.225
190.18,-0.215
190.18,-0.22
190.18,-0.235
190.18,-0.245
190.19,-0.25
190.19,-0.23
190.19,-0.225
190.19,-0.225
190.2,-0.225
190.2,-0.235
190.2,-0.245
190.21,-0.23
190.21,-0.225
190.21,-0.23
190.21,-0.225
190.22,-0.245
190.22,-0.23
190.22,-0.225
190.22,-0.23
190.23,-0.23
190.23,-0.235
190.23,-0.235
190.24,-0.25
190.24,-0.225
190.24,-0.21
190.24,-0.22
190.25,-0.225
190.25,-0.215
190.25,-0.215
190.26,-0.21
190.26,-0.19
190.26,-0.185
190.26,-0.195
190.27,-0.195
190.27,-0.205
190.27,-0.195
190.28,-0.195
190.28,-0.185
190.28,-0.21
190.28,-0.21
190.29,-0.21
190.29,-0.2
190.29,-0.185
190.29,-0.185
190.3,-0.195
190.3,-0.205
190.3,-0.21
190.31,-0.195
190.31,-0.185
190.31,-0.195
190.31,-0.19
190.32,-0.2
190.32,-0.21
190.32,-0.2
190.32,-0.19
190.33,-0.19
190.33,-0.195
190.33,-0.19
190.34,-0.185
190.34,-0.165
190.34,-0.155
190.34,-0.16
190.35,-0.155
190.35,-0.165
190.35,-0.16
190.36,-0.15
190.36,-0.145
190.36,-0.14
190.36,-0.15
190.37,-0.14
190.37,-0.14
190.37,-0.13
190.38,-0.12
190.38,-0.115
190.38,-0.125
190.38,-0.14
190.39,-0.14
190.39,-0.145
190.39,-0.145
190.39,-0.155
190.4,-0.165
190.4,-0.165
190.4,-0.155
190.41,-0.155
190.41,-0.145
190.41,-0.15
190.41,-0.165
190.42,-0.18
190.42,-0.175
190.42,-0.18
190.43,-0.16
190.43,-0.165
190.43,-0.17
190.43,-0.19
190.44,-0.18
190.44,-0.18
190.44,-0.165
190.44,-0.175
190.45,-0.17
190.45,-0.18
190.45,-0.18
190.46,-0.17
190.46,-0.17
190.46,-0.175
190.46,-0.18
190.47,-0.185
190.47,-0.18
190.47,-0.175
190.47,-0.17
190.48,-0.185
190.48,-0.22
190.48,-0.245
190.49,-0.265
190.49,-0.27
190.49,-0.27
190.49,-0.3
190.5,-0.325
190.5,-0.345
190.5,-0.34
190.51,-0.305
190.51,-0.23
190.51,-0.135
190.51,-0.02
190.52,0.07
190.52,0.175
190.52,0.26
190.53,0.37
190.53,0.49
190.53,0.59
190.53,0.63
190.54,0.58
190.54,0.36
190.54,0.06
190.54,-0.155
190.55,-0.235
190.55,-0.22
190.55,-0.2
190.56,-0.2
190.56,-0.195
190.56,-0.185
190.56,-0.205
190.57,-0.21
190.57,-0.205
190.57,-0.2
190.57,-0.2
190.58,-0.2
190.58,-0.21
190.58,-0.205
190.59,-0.215
190.59,-0.215
190.59,-0.19
190.59,-0.2
190.6,-0.21
190.6,-0.205
190.6,-0.215
190.61,-0.195
190.61,-0.195
190.61,-0.2
190.61,-0.19
190.62,-0.22
190.62,-0.22
190.62,-0.2
190.62,-0.195
190.63,-0.19
190.63,-0.2
190.63,-0.21
190.64,-0.195
190.64,-0.19
190.64,-0.18
190.64,-0.195
190.65,-0.2
190.65,-0.205
190.65,-0.205
190.66,-0.195
190.66,-0.18
190.66,-0.18
190.66,-0.2
190.67,-0.215
190.67,-0.22
190.67,-0.195
190.68,-0.195
190.68,-0.175
190.68,-0.2
190.68,-0.21
190.69,-0.21
190.69,-0.215
190.69,-0.205
190.69,-0.205
190.7,-0.2
190.7,-0.21
190.7,-0.195
190.71,-0.2
190.71,-0.2
190.71,-0.21
190.71,-0.21
190.72,-0.235
190.72,-0.225
190.72,-0.225
190.72,-0.215
190.73,-0.225
190.73,-0.23
190.73,-0.255
190.74,-0.25
190.74,-0.25
190.74,-0.235
190.74,-0.24
190.75,-0.24
190.75,-0.255
190.75,-0.245
190.76,-0.245
190.76,-0.235
190.76,-0.245
190.76,-0.255
190.77,-0.28
190.77,-0.285
190.77,-0.285
190.78,-0.285
190.78,-0.28
190.78,-0.3
190.78,-0.32
190.79,-0.32
190.79,-0.315
190.79,-0.305
190.79,-0.305
190.8,-0.3
190.8,-0.33
190.8,-0.33
190.81,-0.31
190.81,-0.31
190.81,-0.3
190.81,-0.32
190.82,-0.315
190.82,-0.3
190.82,-0.275
190.82,-0.255
190.83,-0.24
190.83,-0.245
190.83,-0.25
190.84,-0.23
190.84,-0.21
190.84,-0.19
190.84,-0.185
190.85,-0.17
190.85,-0.18
190.85,-0.17
190.86,-0.165
190.86,-0.14
190.86,-0.155
190.86,-0.15
190.87,-0.155
190.87,-0.165
190.87,-0.145
190.88,-0.135
190.88,-0.135
190.88,-0.13
190.88,-0.15
190.89,-0.13
190.89,-0.135
190.89,-0.12
190.89,-0.125
190.9,-0.135
190.9,-0.15
190.9,-0.145
190.91,-0.14
190.91,-0.12
190.91,-0.13
190.91,-0.125
190.92,-0.135
190.92,-0.14
190.92,-0.145
190.93,-0.14
190.93,-0.14
190.93,-0.135
190.93,-0.14
190.94,-0.15
190.94,-0.14
190.94,-0.14
190.94,-0.15
190.95,-0.155
190.95,-0.15
190.95,-0.13
190.96,-0.14
190.96,-0.125
190.96,-0.13
190.96,-0.14
190.97,-0.145
190.97,-0.155
190.97,-0.145
190.97,-0.145
190.98,-0.155
190.98,-0.16
190.98,-0.17
190.99,-0.16
190.99,-0.16
190.99,-0.155
190.99,-0.155
191,-0.17
191,-0.18
191,-0.185
191.01,-0.17
191.01,-0.15
191.01,-0.155
191.01,-0.165
191.02,-0.165
191.02,-0.175
191.02,-0.155
191.03,-0.16
191.03,-0.15
191.03,-0.16
191.03,-0.185
191.04,-0.17
191.04,-0.17
191.04,-0.16
191.04,-0.17
191.05,-0.165
191.05,-0.17
191.05,-0.17
191.06,-0.16
191.06,-0.16
191.06,-0.165
191.06,-0.175
191.07,-0.175
191.07,-0.17
191.07,-0.175
191.07,-0.15
191.08,-0.15
191.08,-0.16
191.08,-0.165
191.09,-0.175
191.09,-0.17
191.09,-0.16
191.09,-0.16
191.1,-0.17
191.1,-0.175
191.1,-0.165
191.11,-0.16
191.11,-0.165
191.11,-0.155
191.11,-0.16
191.12,-0.165
191.12,-0.175
191.12,-0.17
191.12,-0.16
191.13,-0.17
191.13,-0.18
191.13,-0.185
191.14,-0.175
191.14,-0.16
191.14,-0.15
191.14,-0.16
191.15,-0.155
191.15,-0.165
191.15,-0.165
191.16,-0.135
191.16,-0.125
191.16,-0.125
191.16,-0.135
191.17,-0.14
191.17,-0.14
191.17,-0.14
191.18,-0.135
191.18,-0.115
191.18,-0.12
191.18,-0.125
191.19,-0.125
191.19,-0.115
191.19,-0.1
191.19,-0.115
191.2,-0.105
191.2,-0.135
191.2,-0.14
191.21,-0.14
191.21,-0.135
191.21,-0.145
191.21,-0.145
191.22,-0.16
191.22,-0.17
191.22,-0.165
191.22,-0.16
191.23,-0.155
191.23,-0.175
191.23,-0.19
191.24,-0.18
191.24,-0.185
191.24,-0.165
191.24,-0.18
191.25,-0.18
191.25,-0.195
191.25,-0.195
191.26,-0.185
191.26,-0.165
191.26,-0.175
191.26,-0.185
191.27,-0.2
191.27,-0.195
191.27,-0.18
191.28,-0.175
191.28,-0.185
191.28,-0.19
191.28,-0.18
191.29,-0.18
191.29,-0.18
191.29,-0.18
191.29,-0.185
191.3,-0.225
191.3,-0.245
191.3,-0.25
191.31,-0.255
191.31,-0.26
191.31,-0.28
191.31,-0.3
191.32,-0.3
191.32,-0.245
191.32,-0.15
191.32,-0.045
191.33,0.025
191.33,0.095
191.33,0.145
191.34,0.24
191.34,0.375
191.34,0.485
191.34,0.51
191.35,0.405
191.35,0.15
191.35,-0.135
191.36,-0.295
191.36,-0.305
191.36,-0.26
191.36,-0.235
191.37,-0.235
191.37,-0.225
191.37,-0.215
191.38,-0.2
191.38,-0.21
191.38,-0.21
191.38,-0.225
191.39,-0.225
191.39,-0.205
191.39,-0.205
191.39,-0.215
191.4,-0.21
191.4,-0.22
191.4,-0.215
191.41,-0.205
191.41,-0.195
191.41,-0.2
191.41,-0.21
191.42,-0.225
191.42,-0.22
191.42,-0.215
191.43,-0.2
191.43,-0.2
191.43,-0.21
191.43,-0.225
191.44,-0.225
191.44,-0.21
191.44,-0.2
191.44,-0.195
191.45,-0.205
191.45,-0.2
191.45,-0.215
191.46,-0.22
191.46,-0.195
191.46,-0.205
191.46,-0.205
191.47,-0.21
191.47,-0.21
191.47,-0.21
191.47,-0.19
191.48,-0.2
191.48,-0.22
191.48,-0.235
191.49,-0.22
191.49,-0.21
191.49,-0.205
191.49,-0.21
191.5,-0.205
191.5,-0.22
191.5,-0.225
191.51,-0.22
191.51,-0.2
191.51,-0.205
191.51,-0.21
191.52,-0.225
191.52,-0.23
191.52,-0.22
191.53,-0.195
191.53,-0.205
191.53,-0.21
191.53,-0.225
191.54,-0.235
191.54,-0.24
191.54,-0.225
191.54,-0.22
191.55,-0.22
191.55,-0.235
191.55,-0.255
191.56,-0.255
191.56,-0.24
191.56,-0.245
191.56,-0.26
191.57,-0.265
191.57,-0.26
191.57,-0.26
191.57,-0.245
191.58,-0.26
191.58,-0.285
191.58,-0.295
191.59,-0.315
191.59,-0.305
191.59,-0.305
191.59,-0.315
191.6,-0.32
191.6,-0.35
191.6,-0.35
191.61,-0.335
191.61,-0.34
191.61,-0.335
191.61,-0.335
191.62,-0.345
191.62,-0.34
191.62,-0.35
191.62,-0.345
191.63,-0.35
191.63,-0.34
191.63,-0.345
191.64,-0.35
191.64,-0.325
191.64,-0.295
191.64,-0.3
191.65,-0.285
191.65,-0.275
191.65,-0.265
191.66,-0.26
191.66,-0.25
191.66,-0.235
191.66,-0.23
191.67,-0.235
191.67,-0.225
191.67,-0.205
191.68,-0.18
191.68,-0.17
191.68,-0.18
191.68,-0.19
191.69,-0.195
191.69,-0.19
191.69,-0.18
191.69,-0.175
191.7,-0.19
191.7,-0.2
191.7,-0.185
191.71,-0.18
191.71,-0.17
191.71,-0.17
191.71,-0.175
191.72,-0.185
191.72,-0.185
191.72,-0.18
191.72,-0.17
191.73,-0.17
191.73,-0.175
191.73,-0.185
191.74,-0.185
191.74,-0.17
191.74,-0.16
191.74,-0.175
191.75,-0.18
191.75,-0.185
191.75,-0.205
191.76,-0.19
191.76,-0.185
191.76,-0.18
191.76,-0.185
191.77,-0.19
191.77,-0.195
191.77,-0.195
191.78,-0.175
191.78,-0.18
191.78,-0.19
191.78,-0.19
191.79,-0.195
191.79,-0.175
191.79,-0.165
191.79,-0.185
191.8,-0.19
191.8,-0.215
191.8,-0.2
191.81,-0.19
191.81,-0.175
191.81,-0.19
191.81,-0.19
191.82,-0.2
191.82,-0.205
191.82,-0.195
191.82,-0.2
191.83,-0.2
191.83,-0.195
191.83,-0.21
191.84,-0.21
191.84,-0.21
191.84,-0.19
191.84,-0.195
191.85,-0.21
191.85,-0.22
191.85,-0.22
191.86,-0.205
191.86,-0.19
191.86,-0.2
191.86,-0.19
191.87,-0.2
191.87,-0.205
191.87,-0.2
191.88,-0.19
191.88,-0.185
191.88,-0.195
191.88,-0.2
191.89,-0.205
191.89,-0.2
191.89,-0.2
191.89,-0.195
191.9,-0.195
191.9,-0.205
191.9,-0.21
191.91,-0.19
191.91,-0.185
191.91,-0.175
191.91,-0.185
191.92,-0.2
191.92,-0.2
191.92,-0.2
191.93,-0.19
191.93,-0.19
191.93,-0.195
191.93,-0.2
191.94,-0.205
191.94,-0.195
191.94,-0.19
191.94,-0.175
191.95,-0.19
191.95,-0.195
191.95,-0.205
191.96,-0.185
191.96,-0.17
191.96,-0.18
191.96,-0.195
191.97,-0.19
191.97,-0.2
191.97,-0.185
191.97,-0.18
191.98,-0.175
191.98,-0.18
191.98,-0.185
191.99,-0.185
191.99,-0.175
191.99,-0.16
191.99,-0.15
192,-0.16
192,-0.165
192,-0.16
192.01,-0.155
192.01,-0.135
192.01,-0.135
192.01,-0.14
192.02,-0.155
192.02,-0.155
192.02,-0.14
192.03,-0.105
192.03,-0.12
192.03,-0.125
192.03,-0.14
192.04,-0.125
192.04,-0.125
192.04,-0.125
192.04,-0.14
192.05,-0.15
192.05,-0.16
192.05,-0.16
192.06,-0.155
192.06,-0.145
192.06,-0.145
192.06,-0.165
192.07,-0.175
192.07,-0.18
192.07,-0.175
192.07,-0.16
192.08,-0.16
192.08,-0.17
192.08,-0.17
192.09,-0.18
192.09,-0.175
192.09,-0.15
192.09,-0.165
192.1,-0.165
192.1,-0.17
192.1,-0.175
192.11,-0.165
192.11,-0.155
192.11,-0.15
192.11,-0.16
192.12,-0.17
192.12,-0.175
192.12,-0.17
192.12,-0.155
192.13,-0.16
192.13,-0.17
192.13,-0.165
192.14,-0.175
192.14,-0.155
192.14,-0.16
192.14,-0.17
192.15,-0.195
192.15,-0.225
192.15,-0.23
192.16,-0.255
192.16,-0.275
192.16,-0.285
192.16,-0.24
192.17,-0.18
192.17,-0.075
192.17,0.045
192.18,0.14
192.18,0.215
192.18,0.305
192.18,0.41
192.19,0.52
192.19,0.615
192.19,0.575
192.19,0.385
192.2,0.08
192.2,-0.17
192.2,-0.275
192.21,-0.255
192.21,-0.205
192.21,-0.195
192.21,-0.185
192.22,-0.185
192.22,-0.17
192.22,-0.165
192.22,-0.155
192.23,-0.155
192.23,-0.155
192.23,-0.17
192.24,-0.17
192.24,-0.17
192.24,-0.16
192.24,-0.16
192.25,-0.16
192.25,-0.165
192.25,-0.18
192.26,-0.165
192.26,-0.15
192.26,-0.15
192.26,-0.165
192.27,-0.17
192.27,-0.165
192.27,-0.15
192.28,-0.16
192.28,-0.14
192.28,-0.145
192.28,-0.16
192.29,-0.155
192.29,-0.16
192.29,-0.15
192.29,-0.14
192.3,-0.13
192.3,-0.135
192.3,-0.14
192.31,-0.135
192.31,-0.135
192.31,-0.135
192.31,-0.14
192.32,-0.15
192.32,-0.14
192.32,-0.135
192.32,-0.125
192.33,-0.13
192.33,-0.145
192.33,-0.14
192.34,-0.145
192.34,-0.145
192.34,-0.13
192.34,-0.125
192.35,-0.135
192.35,-0.145
192.35,-0.14
192.36,-0.135
192.36,-0.135
192.36,-0.145
192.36,-0.15
192.37,-0.155
192.37,-0.15
192.37,-0.145
192.38,-0.14
192.38,-0.135
192.38,-0.13
192.38,-0.145
192.39,-0.155
192.39,-0.155
192.39,-0.145
192.39,-0.16
192.4,-0.16
192.4,-0.16
192.4,-0.17
192.41,-0.16
192.41,-0.16
192.41,-0.16
192.41,-0.17
192.42,-0.19
192.42,-0.195
192.42,-0.19
192.43,-0.195
192.43,-0.19
192.43,-0.205
192.43,-0.225
192.44,-0.235
192.44,-0.225
192.44,-0.225
192.44,-0.23
192.45,-0.245
192.45,-0.26
192.45,-0.26
192.46,-0.27
192.46,-0.265
192.46,-0.265
192.46,-0.28
192.47,-0.29
192.47,-0.29
192.47,-0.29
192.47,-0.28
192.48,-0.28
192.48,-0.285
192.48,-0.295
192.49,-0.285
192.49,-0.28
192.49,-0.26
192.49,-0.245
192.5,-0.245
192.5,-0.24
192.5,-0.24
192.51,-0.22
192.51,-0.19
192.51,-0.175
192.51,-0.175
192.52,-0.165
192.52,-0.16
192.52,-0.135
192.53,-0.12
192.53,-0.125
192.53,-0.12
192.53,-0.12
192.54,-0.125
192.54,-0.11
192.54,-0.105
192.54,-0.09
192.55,-0.1
192.55,-0.095
192.55,-0.1
192.56,-0.09
192.56,-0.075
192.56,-0.08
192.56,-0.085
192.57,-0.1
192.57,-0.095
192.57,-0.085
192.57,-0.07
192.58,-0.075
192.58,-0.08
192.58,-0.085
192.59,-0.095
192.59,-0.09
192.59,-0.09
192.59,-0.085
192.6,-0.08
192.6,-0.095
192.6,-0.1
192.61,-0.095
192.61,-0.085
192.61,-0.09
192.61,-0.09
192.62,-0.115
192.62,-0.105
192.62,-0.105
192.62,-0.09
192.63,-0.1
192.63,-0.1
192.63,-0.11
192.64,-0.125
192.64,-0.11
192.64,-0.11
192.64,-0.095
192.65,-0.1
192.65,-0.115
192.65,-0.125
192.66,-0.11
192.66,-0.11
192.66,-0.11
192.66,-0.105
192.67,-0.11
192.67,-0.12
192.67,-0.115
192.68,-0.105
192.68,-0.105
192.68,-0.11
192.68,-0.12
192.69,-0.125
192.69,-0.11
192.69,-0.115
192.69,-0.115
192.7,-0.125
192.7,-0.13
192.7,-0.125
192.71,-0.12
192.71,-0.12
192.71,-0.115
192.71,-0.115
192.72,-0.13
192.72,-0.135
192.72,-0.12
192.72,-0.11
192.73,-0.11
192.73,-0.11
192.73,-0.13
192.74,-0.135
192.74,-0.125
192.74,-0.125
192.74,-0.125
192.75,-0.12
192.75,-0.12
192.75,-0.125
192.76,-0.125
192.76,-0.105
192.76,-0.105
192.76,-0.12
192.77,-0.13
192.77,-0.125
192.77,-0.115
192.78,-0.095
192.78,-0.1
192.78,-0.115
192.78,-0.135
192.79,-0.135
192.79,-0.11
192.79,-0.095
192.79,-0.105
192.8,-0.095
192.8,-0.11
192.8,-0.11
192.81,-0.105
192.81,-0.105
192.81,-0.1
192.81,-0.105
192.82,-0.105
192.82,-0.115
192.82,-0.105
192.82,-0.09
192.83,-0.1
192.83,-0.11
192.83,-0.12
192.84,-0.12
192.84,-0.115
192.84,-0.105
192.84,-0.115
192.85,-0.11
192.85,-0.125
192.85,-0.12
192.86,-0.125
192.86,-0.105
192.86,-0.1
192.86,-0.1
192.87,-0.105
192.87,-0.105
192.87,-0.09
192.88,-0.075
192.88,-0.07
192.88,-0.085
192.88,-0.085
192.89,-0.095
192.89,-0.085
192.89,-0.065
192.89,-0.07
192.9,-0.065
192.9,-0.07
192.9,-0.065
192.91,-0.045
192.91,-0.06
192.91,-0.055
192.91,-0.045
192.92,-0.055
192.92,-0.055
192.92,-0.055
192.93,-0.065
192.93,-0.08
192.93,-0.07
192.93,-0.09
192.94,-0.09
192.94,-0.075
192.94,-0.085
192.94,-0.085
192.95,-0.095
192.95,-0.11
192.95,-0.115
192.96,-0.1
192.96,-0.09
192.96,-0.1
192.96,-0.115
192.97,-0.115
192.97,-0.12
192.97,-0.11
192.97,-0.105
192.98,-0.1
192.98,-0.11
192.98,-0.115
192.99,-0.12
192.99,-0.125
192.99,-0.115
192.99,-0.11
193,-0.125
193,-0.125
193,-0.125
193.01,-0.12
193.01,-0.12
193.01,-0.14
193.01,-0.175
193.02,-0.205
193.02,-0.235
193.02,-0.245
193.03,-0.255
193.03,-0.27
193.03,-0.255
193.03,-0.2
193.04,-0.09
193.04,0.05
193.04,0.185
193.04,0.275
193.05,0.395
193.05,0.485
193.05,0.605
193.06,0.73
193.06,0.84
193.06,0.85
193.06,0.715
193.07,0.41
193.07,0.075
193.07,-0.15
193.07,-0.17
193.08,-0.15
193.08,-0.15
193.08,-0.17
193.09,-0.17
193.09,-0.155
193.09,-0.15
193.09,-0.16
193.1,-0.17
193.1,-0.185
193.1,-0.19
193.11,-0.175
193.11,-0.17
193.11,-0.17
193.11,-0.18
193.12,-0.18
193.12,-0.185
193.12,-0.185
193.12,-0.165
193.13,-0.17
193.13,-0.18
193.13,-0.175
193.14,-0.19
193.14,-0.18
193.14,-0.17
193.14,-0.16
193.15,-0.18
193.15,-0.17
193.15,-0.185
193.16,-0.175
193.16,-0.17
193.16,-0.175
193.16,-0.17
193.17,-0.18
193.17,-0.18
193.17,-0.17
193.18,-0.17
193.18,-0.16
193.18,-0.175
193.18,-0.18
193.19,-0.19
193.19,-0.17
193.19,-0.165
193.19,-0.165
193.2,-0.17
193.2,-0.19
193.2,-0.195
193.21,-0.185
193.21,-0.185
193.21,-0.18
193.21,-0.185
193.22,-0.185
193.22,-0.195
193.22,-0.18
193.22,-0.175
193.23,-0.195
193.23,-0.19
193.23,-0.21
193.24,-0.215
193.24,-0.225
193.24,-0.21
193.24,-0.195
193.25,-0.21
193.25,-0.225
193.25,-0.225
193.26,-0.225
193.26,-0.215
193.26,-0.23
193.26,-0.225
193.27,-0.25
193.27,-0.255
193.27,-0.255
193.28,-0.26
193.28,-0.255
193.28,-0.27
193.28,-0.285
193.29,-0.285
193.29,-0.285
193.29,-0.285
193.29,-0.295
193.3,-0.32
193.3,-0.34
193.3,-0.33
193.31,-0.32
193.31,-0.325
193.31,-0.33
193.31,-0.335
193.32,-0.35
193.32,-0.365
193.32,-0.355
193.32,-0.35
193.33,-0.345
193.33,-0.34
193.33,-0.345
193.34,-0.34
193.34,-0.335
193.34,-0.325
193.34,-0.31
193.35,-0.29
193.35,-0.285
193.35,-0.28
193.36,-0.245
193.36,-0.24
193.36,-0.22
193.36,-0.22
193.37,-0.22
193.37,-0.23
193.37,-0.205
193.38,-0.175
193.38,-0.165
193.38,-0.165
193.38,-0.17
193.39,-0.175
193.39,-0.16
193.39,-0.155
193.39,-0.14
193.4,-0.155
193.4,-0.16
193.4,-0.155
193.41,-0.14
193.41,-0.125
193.41,-0.13
193.41,-0.135
193.42,-0.145
193.42,-0.15
193.42,-0.15
193.43,-0.135
193.43,-0.135
193.43,-0.13
193.43,-0.14
193.44,-0.145
193.44,-0.135
193.44,-0.14
193.44,-0.135
193.45,-0.135
193.45,-0.155
193.45,-0.15
193.46,-0.14
193.46,-0.14
193.46,-0.145
193.46,-0.14
193.47,-0.15
193.47,-0.155
193.47,-0.15
193.47,-0.14
193.48,-0.14
193.48,-0.155
193.48,-0.16
193.49,-0.16
193.49,-0.16
193.49,-0.16
193.49,-0.145
193.5,-0.16
193.5,-0.16
193.5,-0.175
193.51,-0.17
193.51,-0.16
193.51,-0.175
193.51,-0.16
193.52,-0.18
193.52,-0.18
193.52,-0.16
193.53,-0.15
193.53,-0.165
193.53,-0.175
193.53,-0.175
193.54,-0.19
193.54,-0.165
193.54,-0.16
193.54,-0.16
193.55,-0.16
193.55,-0.17
193.55,-0.185
193.56,-0.17
193.56,-0.16
193.56,-0.155
193.56,-0.16
193.57,-0.175
193.57,-0.17
193.57,-0.17
193.57,-0.17
193.58,-0.17
193.58,-0.165
193.58,-0.165
193.59,-0.18
193.59,-0.17
193.59,-0.16
193.59,-0.16
193.6,-0.155
193.6,-0.165
193.6,-0.16
193.61,-0.155
193.61,-0.15
193.61,-0.16
193.61,-0.155
193.62,-0.165
193.62,-0.165
193.62,-0.16
193.62,-0.135
193.63,-0.135
193.63,-0.15
193.63,-0.16
193.64,-0.16
193.64,-0.155
193.64,-0.145
193.64,-0.145
193.65,-0.145
193.65,-0.15
193.65,-0.165
193.66,-0.15
193.66,-0.145
193.66,-0.14
193.66,-0.145
193.67,-0.155
193.67,-0.16
193.67,-0.145
193.68,-0.145
193.68,-0.145
193.68,-0.14
193.68,-0.135
193.69,-0.13
193.69,-0.125
193.69,-0.105
193.69,-0.105
193.7,-0.115
193.7,-0.11
193.7,-0.125
193.71,-0.115
193.71,-0.09
193.71,-0.1
193.71,-0.08
193.72,-0.095
193.72,-0.1
193.72,-0.09
193.72,-0.09
193.73,-0.07
193.73,-0.075
193.73,-0.095
193.74,-0.12
193.74,-0.115
193.74,-0.1
193.74,-0.105
193.75,-0.12
193.75,-0.12
193.75,-0.13
193.76,-0.13
193.76,-0.12
193.76,-0.135
193.76,-0.135
193.77,-0.14
193.77,-0.145
193.77,-0.14
193.78,-0.13
193.78,-0.135
193.78,-0.14
193.78,-0.15
193.79,-0.155
193.79,-0.165
193.79,-0.15
193.79,-0.14
193.8,-0.145
193.8,-0.145
193.8,-0.165
193.81,-0.15
193.81,-0.15
193.81,-0.155
193.81,-0.16
193.82,-0.165
193.82,-0.165
193.82,-0.16
193.82,-0.145
193.83,-0.165
193.83,-0.17
193.83,-0.21
193.84,-0.23
193.84,-0.255
193.84,-0.275
193.84,-0.3
193.85,-0.285
193.85,-0.215
193.85,-0.1
193.86,0.04
193.86,0.135
193.86,0.245
193.86,0.365
193.87,0.47
193.87,0.565
193.87,0.61
193.88,0.505
193.88,0.2
193.88,-0.105
193.88,-0.25
193.89,-0.24
193.89,-0.195
193.89,-0.18
193.89,-0.18
193.9,-0.195
193.9,-0.2
193.9,-0.205
193.91,-0.185
193.91,-0.18
193.91,-0.175
193.91,-0.19
193.92,-0.185
193.92,-0.19
193.92,-0.19
193.93,-0.175
193.93,-0.175
193.93,-0.18
193.93,-0.19
193.94,-0.2
193.94,-0.195
193.94,-0.19
193.94,-0.195
193.95,-0.185
193.95,-0.2
193.95,-0.19
193.96,-0.195
193.96,-0.195
193.96,-0.185
193.96,-0.195
193.97,-0.2
193.97,-0.195
193.97,-0.18
193.97,-0.18
193.98,-0.18
193.98,-0.18
193.98,-0.19
193.99,-0.2
193.99,-0.2
193.99,-0.185
193.99,-0.185
194,-0.18
194,-0.2
194,-0.205
194.01,-0.2
194.01,-0.185
194.01,-0.18
194.01,-0.18
194.02,-0.2
194.02,-0.205
194.02,-0.205
194.03,-0.195
194.03,-0.195
194.03,-0.21
194.03,-0.22
194.04,-0.22
194.04,-0.215
194.04,-0.21
194.04,-0.225
194.05,-0.215
194.05,-0.23
194.05,-0.23
194.06,-0.23
194.06,-0.22
194.06,-0.22
194.06,-0.23
194.07,-0.24
194.07,-0.24
194.07,-0.245
194.07,-0.235
194.08,-0.25
194.08,-0.245
194.08,-0.265
194.09,-0.28
194.09,-0.275
194.09,-0.265
194.09,-0.28
194.1,-0.29
194.1,-0.305
194.1,-0.315
194.11,-0.315
194.11,-0.315
194.11,-0.32
194.11,-0.33
194.12,-0.345
194.12,-0.35
194.12,-0.345
194.12,-0.34
194.13,-0.335
194.13,-0.33
194.13,-0.34
194.14,-0.34
194.14,-0.345
194.14,-0.315
194.14,-0.3
194.15,-0.29
194.15,-0.29
194.15,-0.285
194.16,-0.27
194.16,-0.25
194.16,-0.23
194.16,-0.22
194.17,-0.225
194.17,-0.23
194.17,-0.215
194.18,-0.2
194.18,-0.195
194.18,-0.205
194.18,-0.2
194.19,-0.205
194.19,-0.19
194.19,-0.175
194.19,-0.17
194.2,-0.17
194.2,-0.195
194.2,-0.2
194.21,-0.2
194.21,-0.18
194.21,-0.17
194.21,-0.175
194.22,-0.19
194.22,-0.2
194.22,-0.2
194.22,-0.195
194.23,-0.185
194.23,-0.195
194.23,-0.205
194.24,-0.22
194.24,-0.195
194.24,-0.195
194.24,-0.19
194.25,-0.195
194.25,-0.205
194.25,-0.215
194.26,-0.225
194.26,-0.21
194.26,-0.21
194.26,-0.205
194.27,-0.235
194.27,-0.22
194.27,-0.215
194.28,-0.2
194.28,-0.21
194.28,-0.205
194.28,-0.225
194.29,-0.23
194.29,-0.225
194.29,-0.225
194.29,-0.22
194.3,-0.22
194.3,-0.22
194.3,-0.225
194.31,-0.22
194.31,-0.215
194.31,-0.22
194.31,-0.23
194.32,-0.24
194.32,-0.245
194.32,-0.235
194.32,-0.215
194.33,-0.23
194.33,-0.23
194.33,-0.24
194.34,-0.245
194.34,-0.24
194.34,-0.225
194.34,-0.22
194.35,-0.215
194.35,-0.23
194.35,-0.235
194.36,-0.23
194.36,-0.235
194.36,-0.23
194.36,-0.235
194.37,-0.245
194.37,-0.24
194.37,-0.24
194.38,-0.22
194.38,-0.215
194.38,-0.23
194.38,-0.24
194.39,-0.245
194.39,-0.24
194.39,-0.23
194.39,-0.24
194.4,-0.23
194.4,-0.23
194.4,-0.24
194.41,-0.24
194.41,-0.235
194.41,-0.225
194.41,-0.22
194.42,-0.245
194.42,-0.25
194.42,-0.245
194.43,-0.245
194.43,-0.23
194.43,-0.23
194.43,-0.24
194.44,-0.245
194.44,-0.245
194.44,-0.23
194.44,-0.225
194.45,-0.23
194.45,-0.25
194.45,-0.25
194.46,-0.225
194.46,-0.215
194.46,-0.195
194.46,-0.19
194.47,-0.2
194.47,-0.22
194.47,-0.205
194.47,-0.2
194.48,-0.2
194.48,-0.19
194.48,-0.205
194.49,-0.21
194.49,-0.2
194.49,-0.19
194.49,-0.185
194.5,-0.195
194.5,-0.205
194.5,-0.205
194.51,-0.21
194.51,-0.185
194.51,-0.19
194.51,-0.21
194.52,-0.225
194.52,-0.23
194.52,-0.235
194.53,-0.24
194.53,-0.235
194.53,-0.23
194.53,-0.245
194.54,-0.25
194.54,-0.245
194.54,-0.24
194.54,-0.24
194.55,-0.24
194.55,-0.255
194.55,-0.26
194.56,-0.25
194.56,-0.245
194.56,-0.25
194.56,-0.265
194.57,-0.275
194.57,-0.265
194.57,-0.26
194.57,-0.25
194.58,-0.25
194.58,-0.25
194.58,-0.26
194.59,-0.265
194.59,-0.265
194.59,-0.255
194.59,-0.255
194.6,-0.255
194.6,-0.28
194.6,-0.29
194.61,-0.315
194.61,-0.33
194.61,-0.355
194.61,-0.375
194.62,-0.39
194.62,-0.34
194.62,-0.23
194.62,-0.11
194.63,-0.03
194.63,0.03
194.63,0.08
194.64,0.19
194.64,0.32
194.64,0.405
194.64,0.385
194.65,0.16
194.65,-0.16
194.65,-0.385
194.66,-0.425
194.66,-0.355
194.66,-0.32
194.66,-0.295
194.67,-0.305
194.67,-0.31
194.67,-0.305
194.68,-0.305
194.68,-0.295
194.68,-0.305
194.68,-0.3
194.69,-0.315
194.69,-0.305
194.69,-0.305
194.69,-0.295
194.7,-0.3
194.7,-0.31
194.7,-0.295
194.71,-0.295
194.71,-0.29
194.71,-0.28
194.71,-0.295
194.72,-0.29
194.72,-0.305
194.72,-0.295
194.72,-0.295
194.73,-0.295
194.73,-0.29
194.73,-0.3
194.74,-0.31
194.74,-0.31
194.74,-0.295
194.74,-0.29
194.75,-0.285
194.75,-0.305
194.75,-0.305
194.76,-0.3
194.76,-0.29
194.76,-0.285
194.76,-0.295
194.77,-0.3
194.77,-0.305
194.77,-0.29
194.78,-0.285
194.78,-0.285
194.78,-0.285
194.78,-0.31
194.79,-0.315
194.79,-0.3
194.79,-0.28
194.79,-0.28
194.8,-0.295
194.8,-0.31
194.8,-0.31
194.81,-0.31
194.81,-0.285
194.81,-0.29
194.81,-0.295
194.82,-0.305
194.82,-0.32
194.82,-0.33
194.82,-0.32
194.83,-0.31
194.83,-0.305
194.83,-0.305
194.84,-0.32
194.84,-0.31
194.84,-0.325
194.84,-0.325
194.85,-0.33
194.85,-0.36
194.85,-0.37
194.86,-0.355
194.86,-0.35
194.86,-0.355
194.86,-0.36
194.87,-0.38
194.87,-0.395
194.87,-0.385
194.88,-0.39
194.88,-0.39
194.88,-0.4
194.88,-0.395
194.89,-0.42
194.89,-0.405
194.89,-0.415
194.89,-0.43
194.9,-0.435
194.9,-0.44
194.9,-0.44
194.91,-0.425
194.91,-0.42
194.91,-0.405
194.91,-0.405
194.92,-0.4
194.92,-0.405
194.92,-0.375
194.93,-0.345
194.93,-0.33
194.93,-0.325
194.93,-0.315
194.94,-0.315
194.94,-0.3
194.94,-0.27
194.94,-0.26
194.95,-0.26
194.95,-0.255
194.95,-0.265
194.96,-0.25
194.96,-0.235
194.96,-0.235
194.96,-0.235
194.97,-0.24
194.97,-0.245
194.97,-0.24
194.97,-0.23
194.98,-0.23
194.98,-0.235
194.98,-0.245
194.99,-0.24
194.99,-0.225
194.99,-0.22
194.99,-0.22
195,-0.23
195,-0.24
