5401 2
180,-0.3
180,-0.285
180.01,-0.285
180.01,-0.28
180.01,-0.255
180.01,-0.265
180.02,-0.28
180.02,-0.26
180.02,-0.24
180.03,-0.235
180.03,-0.22
180.03,-0.225
180.03,-0.245
180.04,-0.235
180.04,-0.235
180.04,-0.23
180.04,-0.24
180.05,-0.255
180.05,-0.255
180.05,-0.26
180.06,-0.25
180.06,-0.255
180.06,-0.265
180.06,-0.25
180.07,-0.245
180.07,-0.235
180.07,-0.25
180.07,-0.265
180.08,-0.28
180.08,-0.3
180.08,-0.32
180.09,-0.335
180.09,-0.34
180.09,-0.335
180.09,-0.335
180.1,-0.355
180.1,-0.37
180.1,-0.36
180.11,-0.35
180.11,-0.33
180.11,-0.34
180.11,-0.35
180.12,-0.36
180.12,-0.35
180.12,-0.345
180.12,-0.345
180.13,-0.335
180.13,-0.355
180.13,-0.36
180.14,-0.365
180.14,-0.355
180.14,-0.35
180.14,-0.355
180.15,-0.365
180.15,-0.37
180.15,-0.36
180.16,-0.355
180.16,-0.355
180.16,-0.355
180.16,-0.375
180.17,-0.39
180.17,-0.41
180.17,-0.435
180.18,-0.46
180.18,-0.475
180.18,-0.51
180.18,-0.555
180.19,-0.56
180.19,-0.5
180.19,-0.375
180.19,-0.235
180.2,-0.085
180.2,0.105
180.2,0.39
180.21,0.66
180.21,0.865
180.21,0.92
180.21,0.82
180.22,0.505
180.22,0.1
180.22,-0.255
180.22,-0.43
180.23,-0.485
180.23,-0.465
180.23,-0.425
180.24,-0.39
180.24,-0.365
180.24,-0.37
180.24,-0.375
180.25,-0.37
180.25,-0.39
180.25,-0.38
180.26,-0.38
180.26,-0.365
180.26,-0.375
180.26,-0.38
180.27,-0.395
180.27,-0.395
180.27,-0.385
180.28,-0.375
180.28,-0.38
180.28,-0.39
180.28,-0.395
180.29,-0.4
180.29,-0.39
180.29,-0.385
180.29,-0.385
180.3,-0.395
180.3,-0.405
180.3,-0.4
180.31,-0.385
180.31,-0.38
180.31,-0.385
180.31,-0.395
180.32,-0.41
180.32,-0.41
180.32,-0.39
180.32,-0.395
180.33,-0.385
180.33,-0.395
180.33,-0.39
180.34,-0.385
180.34,-0.375
180.34,-0.37
180.34,-0.375
180.35,-0.38
180.35,-0.39
180.35,-0.39
180.36,-0.385
180.36,-0.385
180.36,-0.385
180.36,-0.38
180.37,-0.38
180.37,-0.39
180.37,-0.385
180.38,-0.375
180.38,-0.37
180.38,-0.385
180.38,-0.395
180.39,-0.395
180.39,-0.38
180.39,-0.36
180.39,-0.365
180.4,-0.375
180.4,-0.38
180.4,-0.37
180.41,-0.375
180.41,-0.37
180.41,-0.36
180.41,-0.38
180.42,-0.385
180.42,-0.385
180.42,-0.375
180.43,-0.37
180.43,-0.37
180.43,-0.38
180.43,-0.395
180.44,-0.385
180.44,-0.39
180.44,-0.375
180.44,-0.38
180.45,-0.385
180.45,-0.395
180.45,-0.4
180.46,-0.385
180.46,-0.38
180.46,-0.38
180.46,-0.39
180.47,-0.405
180.47,-0.4
180.47,-0.4
180.47,-0.375
180.48,-0.395
180.48,-0.39
180.48,-0.4
180.49,-0.39
180.49,-0.395
180.49,-0.385
180.49,-0.39
180.5,-0.4
180.5,-0.405
180.5,-0.395
180.51,-0.385
180.51,-0.37
180.51,-0.36
180.51,-0.365
180.52,-0.36
180.52,-0.355
180.52,-0.325
180.53,-0.305
180.53,-0.3
180.53,-0.3
180.53,-0.285
180.54,-0.285
180.54,-0.265
180.54,-0.25
180.54,-0.255
180.55,-0.255
180.55,-0.25
180.55,-0.255
180.56,-0.24
180.56,-0.235
180.56,-0.25
180.56,-0.245
180.57,-0.26
180.57,-0.245
180.57,-0.25
180.57,-0.235
180.58,-0.235
180.58,-0.235
180.58,-0.255
180.59,-0.27
180.59,-0.245
180.59,-0.235
180.59,-0.235
180.6,-0.25
180.6,-0.26
180.6,-0.25
180.61,-0.25
180.61,-0.24
180.61,-0.245
180.61,-0.25
180.62,-0.25
180.62,-0.255
180.62,-0.25
180.62,-0.245
180.63,-0.245
180.63,-0.26
180.63,-0.27
180.64,-0.27
180.64,-0.265
180.64,-0.255
180.64,-0.25
180.65,-0.265
180.65,-0.285
180.65,-0.275
180.66,-0.275
180.66,-0.26
180.66,-0.27
180.66,-0.275
180.67,-0.295
180.67,-0.285
180.67,-0.285
180.68,-0.28
180.68,-0.265
180.68,-0.275
180.68,-0.295
180.69,-0.28
180.69,-0.28
180.69,-0.265
180.69,-0.275
180.7,-0.275
180.7,-0.29
180.7,-0.295
180.71,-0.29
180.71,-0.29
180.71,-0.285
180.71,-0.29
180.72,-0.305
180.72,-0.3
180.72,-0.285
180.72,-0.275
180.73,-0.29
180.73,-0.29
180.73,-0.295
180.74,-0.295
180.74,-0.29
180.74,-0.27
180.74,-0.27
180.75,-0.29
180.75,-0.295
180.75,-0.29
180.76,-0.285
180.76,-0.285
180.76,-0.29
180.76,-0.285
180.77,-0.29
180.77,-0.29
180.77,-0.275
180.78,-0.28
180.78,-0.275
180.78,-0.285
180.78,-0.29
180.79,-0.285
180.79,-0.28
180.79,-0.265
180.79,-0.28
180.8,-0.28
180.8,-0.28
180.8,-0.285
180.81,-0.285
180.81,-0.285
180.81,-0.27
180.81,-0.285
180.82,-0.29
180.82,-0.28
180.82,-0.275
180.82,-0.255
180.83,-0.235
180.83,-0.23
180.83,-0.235
180.84,-0.24
180.84,-0.205
180.84,-0.205
180.84,-0.2
180.85,-0.2
180.85,-0.2
180.85,-0.19
180.86,-0.175
180.86,-0.16
180.86,-0.165
180.86,-0.165
180.87,-0.185
180.87,-0.18
180.87,-0.175
180.88,-0.18
180.88,-0.19
180.88,-0.2
180.88,-0.21
180.89,-0.2
180.89,-0.2
180.89,-0.2
180.89,-0.19
180.9,-0.175
180.9,-0.165
180.9,-0.175
180.91,-0.195
180.91,-0.205
180.91,-0.235
180.91,-0.255
180.92,-0.285
180.92,-0.295
180.92,-0.275
180.93,-0.27
180.93,-0.285
180.93,-0.285
180.93,-0.295
180.94,-0.29
180.94,-0.285
180.94,-0.27
180.94,-0.27
180.95,-0.295
180.95,-0.29
180.95,-0.295
180.96,-0.295
180.96,-0.29
180.96,-0.285
180.96,-0.295
180.97,-0.305
180.97,-0.305
180.97,-0.305
180.97,-0.305
180.98,-0.305
180.98,-0.315
180.98,-0.32
180.99,-0.325
180.99,-0.32
180.99,-0.305
180.99,-0.31
181,-0.33
181,-0.35
181,-0.385
181.01,-0.41
181.01,-0.435
181.01,-0.455
181.01,-0.5
181.02,-0.51
181.02,-0.455
181.02,-0.315
181.03,-0.16
181.03,0.02
181.03,0.245
181.03,0.51
181.04,0.765
181.04,0.91
181.04,0.895
181.04,0.66
181.05,0.275
181.05,-0.135
181.05,-0.385
181.06,-0.445
181.06,-0.395
181.06,-0.34
181.06,-0.325
181.07,-0.35
181.07,-0.34
181.07,-0.34
181.07,-0.315
181.08,-0.315
181.08,-0.32
181.08,-0.34
181.09,-0.33
181.09,-0.32
181.09,-0.32
181.09,-0.32
181.1,-0.335
181.1,-0.335
181.1,-0.34
181.11,-0.33
181.11,-0.33
181.11,-0.335
181.11,-0.335
181.12,-0.34
181.12,-0.34
181.12,-0.34
181.12,-0.345
181.13,-0.34
181.13,-0.345
181.13,-0.34
181.14,-0.335
181.14,-0.34
181.14,-0.33
181.14,-0.335
181.15,-0.345
181.15,-0.35
181.15,-0.35
181.16,-0.33
181.16,-0.325
181.16,-0.33
181.16,-0.345
181.17,-0.33
181.17,-0.335
181.17,-0.33
181.18,-0.325
181.18,-0.315
181.18,-0.325
181.18,-0.33
181.19,-0.335
181.19,-0.335
181.19,-0.32
181.19,-0.32
181.2,-0.33
181.2,-0.345
181.2,-0.345
181.21,-0.33
181.21,-0.325
181.21,-0.33
181.21,-0.335
181.22,-0.345
181.22,-0.34
181.22,-0.33
181.22,-0.32
181.23,-0.32
181.23,-0.33
181.23,-0.34
181.24,-0.335
181.24,-0.335
181.24,-0.32
181.24,-0.32
181.25,-0.33
181.25,-0.34
181.25,-0.345
181.26,-0.335
181.26,-0.33
181.26,-0.34
181.26,-0.35
181.27,-0.355
181.27,-0.355
181.27,-0.355
181.28,-0.35
181.28,-0.345
181.28,-0.35
181.28,-0.36
181.29,-0.36
181.29,-0.35
181.29,-0.345
181.29,-0.345
181.3,-0.355
181.3,-0.365
181.3,-0.345
181.31,-0.335
181.31,-0.335
181.31,-0.345
181.31,-0.335
181.32,-0.35
181.32,-0.345
181.32,-0.335
181.32,-0.33
181.33,-0.33
181.33,-0.335
181.33,-0.335
181.34,-0.32
181.34,-0.305
181.34,-0.295
181.34,-0.3
181.35,-0.29
181.35,-0.275
181.35,-0.285
181.36,-0.275
181.36,-0.255
181.36,-0.255
181.36,-0.26
181.37,-0.26
181.37,-0.26
181.37,-0.255
181.38,-0.25
181.38,-0.245
181.38,-0.235
181.38,-0.24
181.39,-0.25
181.39,-0.215
181.39,-0.215
181.39,-0.22
181.4,-0.225
181.4,-0.235
181.4,-0.245
181.41,-0.245
181.41,-0.235
181.41,-0.255
181.41,-0.255
181.42,-0.25
181.42,-0.255
181.42,-0.245
181.43,-0.23
181.43,-0.24
181.43,-0.25
181.43,-0.265
181.44,-0.265
181.44,-0.265
181.44,-0.245
181.44,-0.255
181.45,-0.27
181.45,-0.265
181.45,-0.265
181.46,-0.255
181.46,-0.25
181.46,-0.265
181.46,-0.26
181.47,-0.26
181.47,-0.265
181.47,-0.26
181.47,-0.26
181.48,-0.26
181.48,-0.265
181.48,-0.29
181.49,-0.28
181.49,-0.265
181.49,-0.255
181.49,-0.27
181.5,-0.27
181.5,-0.28
181.5,-0.285
181.51,-0.275
181.51,-0.26
181.51,-0.27
181.51,-0.275
181.52,-0.29
181.52,-0.29
181.52,-0.275
181.53,-0.27
181.53,-0.275
181.53,-0.28
181.53,-0.29
181.54,-0.295
181.54,-0.285
181.54,-0.27
181.54,-0.275
181.55,-0.275
181.55,-0.285
181.55,-0.285
181.56,-0.285
181.56,-0.265
181.56,-0.28
181.56,-0.29
181.57,-0.3
181.57,-0.295
181.57,-0.285
181.57,-0.27
181.58,-0.275
181.58,-0.28
181.58,-0.28
181.59,-0.285
181.59,-0.29
181.59,-0.27
181.59,-0.27
181.6,-0.275
181.6,-0.275
181.6,-0.27
181.61,-0.27
181.61,-0.26
181.61,-0.26
181.61,-0.265
181.62,-0.265
181.62,-0.28
181.62,-0.275
181.62,-0.24
181.63,-0.255
181.63,-0.245
181.63,-0.235
181.64,-0.23
181.64,-0.225
181.64,-0.21
181.64,-0.21
181.65,-0.21
181.65,-0.215
181.65,-0.215
181.66,-0.185
181.66,-0.175
181.66,-0.17
181.66,-0.165
181.67,-0.165
181.67,-0.18
181.67,-0.175
181.68,-0.17
181.68,-0.18
181.68,-0.19
181.68,-0.2
181.69,-0.205
181.69,-0.2
181.69,-0.18
181.69,-0.185
181.7,-0.18
181.7,-0.205
181.7,-0.21
181.71,-0.21
181.71,-0.19
181.71,-0.18
181.71,-0.16
181.72,-0.185
181.72,-0.205
181.72,-0.23
181.72,-0.23
181.73,-0.26
181.73,-0.27
181.73,-0.3
181.74,-0.315
181.74,-0.31
181.74,-0.3
181.74,-0.3
181.75,-0.31
181.75,-0.315
181.75,-0.325
181.76,-0.31
181.76,-0.3
181.76,-0.32
181.76,-0.315
181.77,-0.34
181.77,-0.315
181.77,-0.315
181.78,-0.305
181.78,-0.3
181.78,-0.32
181.78,-0.32
181.79,-0.34
181.79,-0.325
181.79,-0.325
181.79,-0.325
181.8,-0.335
181.8,-0.345
181.8,-0.36
181.81,-0.395
181.81,-0.42
181.81,-0.44
181.81,-0.48
181.82,-0.525
181.82,-0.56
181.82,-0.51
181.82,-0.41
181.83,-0.285
181.83,-0.13
181.83,0.07
181.84,0.335
181.84,0.615
181.84,0.775
181.84,0.815
181.85,0.725
181.85,0.45
181.85,0.075
181.86,-0.24
181.86,-0.405
181.86,-0.465
181.86,-0.46
181.87,-0.43
181.87,-0.395
181.87,-0.365
181.88,-0.345
181.88,-0.355
181.88,-0.375
181.88,-0.37
181.89,-0.38
181.89,-0.365
181.89,-0.37
181.89,-0.35
181.9,-0.365
181.9,-0.37
181.9,-0.375
181.91,-0.38
181.91,-0.375
181.91,-0.37
181.91,-0.375
181.92,-0.385
181.92,-0.39
181.92,-0.37
181.93,-0.345
181.93,-0.355
181.93,-0.37
181.93,-0.375
181.94,-0.375
181.94,-0.375
181.94,-0.355
181.94,-0.37
181.95,-0.375
181.95,-0.38
181.95,-0.37
181.96,-0.37
181.96,-0.365
181.96,-0.37
181.96,-0.37
181.97,-0.36
181.97,-0.365
181.97,-0.36
181.97,-0.365
181.98,-0.38
181.98,-0.375
181.98,-0.375
181.99,-0.38
181.99,-0.375
181.99,-0.37
181.99,-0.37
182,-0.365
182,-0.37
182,-0.375
182.01,-0.365
182.01,-0.355
182.01,-0.355
182.01,-0.36
182.02,-0.365
182.02,-0.385
182.02,-0.365
182.03,-0.36
182.03,-0.36
182.03,-0.36
182.03,-0.37
182.04,-0.375
182.04,-0.355
182.04,-0.355
182.04,-0.345
182.05,-0.355
182.05,-0.37
182.05,-0.38
182.06,-0.365
182.06,-0.37
182.06,-0.365
182.06,-0.365
182.07,-0.385
182.07,-0.39
182.07,-0.385
182.07,-0.38
182.08,-0.38
182.08,-0.385
182.08,-0.395
182.09,-0.38
182.09,-0.38
182.09,-0.375
182.09,-0.375
182.1,-0.39
182.1,-0.4
182.1,-0.41
182.11,-0.4
182.11,-0.395
182.11,-0.375
182.11,-0.4
182.12,-0.415
182.12,-0.415
182.12,-0.41
182.12,-0.4
182.13,-0.4
182.13,-0.4
182.13,-0.39
182.14,-0.385
182.14,-0.365
182.14,-0.355
182.14,-0.35
182.15,-0.35
182.15,-0.345
182.15,-0.34
182.16,-0.34
182.16,-0.32
182.16,-0.325
182.16,-0.325
182.17,-0.33
182.17,-0.315
182.17,-0.3
182.18,-0.285
182.18,-0.295
182.18,-0.295
182.18,-0.305
182.19,-0.315
182.19,-0.31
182.19,-0.31
182.19,-0.31
182.2,-0.31
182.2,-0.315
182.2,-0.315
182.21,-0.315
182.21,-0.3
182.21,-0.315
182.21,-0.305
182.22,-0.31
182.22,-0.325
182.22,-0.31
182.22,-0.3
182.23,-0.305
182.23,-0.31
182.23,-0.32
182.24,-0.33
182.24,-0.315
182.24,-0.3
182.24,-0.31
182.25,-0.325
182.25,-0.34
182.25,-0.335
182.26,-0.325
182.26,-0.325
182.26,-0.335
182.26,-0.335
182.27,-0.345
182.27,-0.335
182.27,-0.33
182.28,-0.325
182.28,-0.33
182.28,-0.345
182.28,-0.35
182.29,-0.365
182.29,-0.34
182.29,-0.34
182.29,-0.335
182.3,-0.355
182.3,-0.34
182.3,-0.37
182.31,-0.365
182.31,-0.355
182.31,-0.36
182.31,-0.37
182.32,-0.37
182.32,-0.375
182.32,-0.355
182.32,-0.35
182.33,-0.36
182.33,-0.365
182.33,-0.375
182.34,-0.38
182.34,-0.37
182.34,-0.36
182.34,-0.36
182.35,-0.36
182.35,-0.37
182.35,-0.37
182.36,-0.355
182.36,-0.36
182.36,-0.37
182.36,-0.375
182.37,-0.395
182.37,-0.395
182.37,-0.37
182.38,-0.355
182.38,-0.355
182.38,-0.36
182.38,-0.38
182.39,-0.375
182.39,-0.37
182.39,-0.35
182.39,-0.365
182.4,-0.37
182.4,-0.375
182.4,-0.375
182.41,-0.37
182.41,-0.35
182.41,-0.345
182.41,-0.345
182.42,-0.35
182.42,-0.355
182.42,-0.34
182.43,-0.335
182.43,-0.32
182.43,-0.31
182.43,-0.31
182.44,-0.325
182.44,-0.305
182.44,-0.3
182.44,-0.3
182.45,-0.29
182.45,-0.29
182.45,-0.3
182.46,-0.29
182.46,-0.27
182.46,-0.27
182.46,-0.265
182.47,-0.28
182.47,-0.28
182.47,-0.27
182.47,-0.27
182.48,-0.28
182.48,-0.265
182.48,-0.275
182.49,-0.295
182.49,-0.305
182.49,-0.29
182.49,-0.27
182.5,-0.26
182.5,-0.27
182.5,-0.3
182.51,-0.32
182.51,-0.32
182.51,-0.34
182.51,-0.365
182.52,-0.39
182.52,-0.4
182.52,-0.395
182.53,-0.38
182.53,-0.405
182.53,-0.4
182.53,-0.41
182.54,-0.41
182.54,-0.395
182.54,-0.385
182.54,-0.38
182.55,-0.39
182.55,-0.4
182.55,-0.405
182.56,-0.395
182.56,-0.39
182.56,-0.385
182.56,-0.4
182.57,-0.415
182.57,-0.415
182.57,-0.4
182.57,-0.4
182.58,-0.395
182.58,-0.395
182.58,-0.405
182.59,-0.405
182.59,-0.4
182.59,-0.4
182.59,-0.405
182.6,-0.435
182.6,-0.455
182.6,-0.49
182.61,-0.505
182.61,-0.515
182.61,-0.56
182.61,-0.585
182.62,-0.565
182.62,-0.475
182.62,-0.345
182.62,-0.19
182.63,0.015
182.63,0.265
182.63,0.52
182.64,0.715
182.64,0.805
182.64,0.74
182.64,0.46
182.65,0.08
182.65,-0.27
182.65,-0.465
182.66,-0.54
182.66,-0.53
182.66,-0.505
182.66,-0.48
182.67,-0.47
182.67,-0.47
182.67,-0.46
182.68,-0.445
182.68,-0.43
182.68,-0.44
182.68,-0.455
182.69,-0.45
182.69,-0.445
182.69,-0.425
182.69,-0.435
182.7,-0.445
182.7,-0.435
182.7,-0.45
182.71,-0.425
182.71,-0.42
182.71,-0.43
182.71,-0.44
182.72,-0.445
182.72,-0.455
182.72,-0.44
182.72,-0.43
182.73,-0.42
182.73,-0.435
182.73,-0.455
182.74,-0.46
182.74,-0.43
182.74,-0.44
182.74,-0.435
182.75,-0.44
182.75,-0.45
182.75,-0.445
182.76,-0.44
182.76,-0.445
182.76,-0.445
182.76,-0.445
182.77,-0.445
182.77,-0.465
182.77,-0.44
182.78,-0.445
182.78,-0.435
182.78,-0.435
182.78,-0.44
182.79,-0.445
182.79,-0.44
182.79,-0.435
182.79,-0.445
182.8,-0.445
182.8,-0.455
182.8,-0.45
182.81,-0.455
182.81,-0.44
182.81,-0.45
182.81,-0.445
182.82,-0.435
182.82,-0.455
182.82,-0.445
182.82,-0.43
182.83,-0.425
182.83,-0.435
182.83,-0.45
182.84,-0.455
182.84,-0.45
182.84,-0.43
182.84,-0.435
182.85,-0.44
182.85,-0.455
182.85,-0.47
182.86,-0.455
182.86,-0.45
182.86,-0.45
182.86,-0.455
182.87,-0.465
182.87,-0.48
182.87,-0.475
182.88,-0.465
182.88,-0.48
182.88,-0.5
182.88,-0.505
182.89,-0.505
182.89,-0.505
182.89,-0.49
182.89,-0.49
182.9,-0.49
182.9,-0.5
182.9,-0.505
182.91,-0.495
182.91,-0.485
182.91,-0.47
182.91,-0.465
182.92,-0.465
182.92,-0.465
182.92,-0.45
182.93,-0.44
182.93,-0.42
182.93,-0.425
182.93,-0.425
182.94,-0.41
182.94,-0.405
182.94,-0.385
182.94,-0.375
182.95,-0.38
182.95,-0.365
182.95,-0.365
182.96,-0.35
182.96,-0.325
182.96,-0.34
182.96,-0.335
182.97,-0.35
182.97,-0.345
182.97,-0.34
182.97,-0.325
182.98,-0.325
182.98,-0.33
182.98,-0.325
182.99,-0.33
182.99,-0.325
182.99,-0.305
182.99,-0.32
183,-0.32
183,-0.335
183,-0.34
183.01,-0.335
183.01,-0.33
183.01,-0.335
183.01,-0.34
183.02,-0.34
183.02,-0.345
183.02,-0.34
183.03,-0.32
183.03,-0.335
183.03,-0.335
183.03,-0.34
183.04,-0.34
183.04,-0.33
183.04,-0.325
183.04,-0.345
183.05,-0.335
183.05,-0.34
183.05,-0.345
183.06,-0.34
183.06,-0.33
183.06,-0.335
183.06,-0.34
183.07,-0.35
183.07,-0.365
183.07,-0.35
183.07,-0.335
183.08,-0.35
183.08,-0.35
183.08,-0.355
183.09,-0.355
183.09,-0.355
183.09,-0.34
183.09,-0.345
183.1,-0.35
183.1,-0.36
183.1,-0.345
183.11,-0.355
183.11,-0.34
183.11,-0.35
183.11,-0.345
183.12,-0.36
183.12,-0.36
183.12,-0.345
183.12,-0.34
183.13,-0.345
183.13,-0.345
183.13,-0.355
183.14,-0.36
183.14,-0.355
183.14,-0.32
183.14,-0.34
183.15,-0.34
183.15,-0.345
183.15,-0.35
183.16,-0.34
183.16,-0.335
183.16,-0.325
183.16,-0.345
183.17,-0.34
183.17,-0.35
183.17,-0.34
183.18,-0.315
183.18,-0.33
183.18,-0.34
183.18,-0.34
183.19,-0.34
183.19,-0.325
183.19,-0.32
183.19,-0.32
183.2,-0.315
183.2,-0.305
183.2,-0.285
183.21,-0.27
183.21,-0.26
183.21,-0.26
183.21,-0.265
183.22,-0.275
183.22,-0.265
183.22,-0.24
183.22,-0.23
183.23,-0.22
183.23,-0.23
183.23,-0.23
183.24,-0.235
183.24,-0.215
183.24,-0.22
183.24,-0.23
183.25,-0.23
183.25,-0.245
183.25,-0.255
183.26,-0.25
183.26,-0.235
183.26,-0.235
183.26,-0.235
183.27,-0.245
183.27,-0.26
183.27,-0.255
183.28,-0.225
183.28,-0.22
183.28,-0.205
183.28,-0.23
183.29,-0.265
183.29,-0.28
183.29,-0.29
183.29,-0.29
183.3,-0.305
183.3,-0.33
183.3,-0.335
183.31,-0.335
183.31,-0.33
183.31,-0.32
183.31,-0.335
183.32,-0.33
183.32,-0.345
183.32,-0.34
183.32,-0.34
183.33,-0.335
183.33,-0.34
183.33,-0.355
183.34,-0.35
183.34,-0.34
183.34,-0.33
183.34,-0.35
183.35,-0.345
183.35,-0.35
183.35,-0.36
183.36,-0.355
183.36,-0.34
183.36,-0.335
183.36,-0.355
183.37,-0.375
183.37,-0.41
183.37,-0.445
183.38,-0.45
183.38,-0.475
183.38,-0.52
183.38,-0.545
183.39,-0.55
183.39,-0.465
183.39,-0.35
183.39,-0.23
183.4,-0.135
183.4,-0.01
183.4,0.145
183.41,0.36
183.41,0.565
183.41,0.74
183.41,0.865
183.42,0.95
183.42,1.02
183.42,1.005
183.43,0.845
183.43,0.5
183.43,0.065
183.43,-0.285
183.44,-0.47
183.44,-0.48
183.44,-0.425
183.44,-0.37
183.45,-0.37
183.45,-0.385
183.45,-0.395
183.46,-0.375
183.46,-0.365
183.46,-0.365
183.46,-0.38
183.47,-0.395
183.47,-0.395
183.47,-0.4
183.47,-0.37
183.48,-0.38
183.48,-0.39
183.48,-0.395
183.49,-0.41
183.49,-0.4
183.49,-0.385
183.49,-0.39
183.5,-0.4
183.5,-0.405
183.5,-0.41
183.51,-0.4
183.51,-0.395
183.51,-0.39
183.51,-0.395
183.52,-0.395
183.52,-0.405
183.52,-0.395
183.53,-0.385
183.53,-0.39
183.53,-0.385
183.53,-0.4
183.54,-0.41
183.54,-0.4
183.54,-0.37
183.54,-0.375
183.55,-0.38
183.55,-0.385
183.55,-0.385
183.56,-0.38
183.56,-0.38
183.56,-0.375
183.56,-0.395
183.57,-0.395
183.57,-0.395
183.57,-0.38
183.57,-0.375
183.58,-0.365
183.58,-0.38
183.58,-0.395
183.59,-0.395
183.59,-0.39
183.59,-0.38
183.59,-0.38
183.6,-0.385
183.6,-0.395
183.6,-0.4
183.61,-0.39
183.61,-0.385
183.61,-0.38
183.61,-0.4
183.62,-0.395
183.62,-0.395
183.62,-0.38
183.62,-0.38
183.63,-0.38
183.63,-0.385
183.63,-0.405
183.64,-0.395
183.64,-0.4
183.64,-0.385
183.64,-0.39
183.65,-0.4
183.65,-0.41
183.65,-0.41
183.66,-0.405
183.66,-0.41
183.66,-0.4
183.66,-0.405
183.67,-0.42
183.67,-0.415
183.67,-0.4
183.68,-0.39
183.68,-0.4
183.68,-0.4
183.68,-0.405
183.69,-0.39
183.69,-0.39
183.69,-0.375
183.69,-0.355
183.7,-0.36
183.7,-0.365
183.7,-0.365
183.71,-0.335
183.71,-0.32
183.71,-0.32
183.71,-0.305
183.72,-0.315
183.72,-0.305
183.72,-0.3
183.72,-0.29
183.73,-0.285
183.73,-0.29
183.73,-0.3
183.74,-0.3
183.74,-0.295
183.74,-0.285
183.74,-0.275
183.75,-0.29
183.75,-0.285
183.75,-0.285
183.76,-0.28
183.76,-0.27
183.76,-0.27
183.76,-0.285
183.77,-0.295
183.77,-0.295
183.77,-0.28
183.78,-0.285
183.78,-0.295
183.78,-0.29
183.78,-0.295
183.79,-0.305
183.79,-0.31
183.79,-0.29
183.79,-0.28
183.8,-0.305
183.8,-0.305
183.8,-0.305
183.81,-0.295
183.81,-0.305
183.81,-0.295
183.81,-0.3
183.82,-0.305
183.82,-0.315
183.82,-0.305
183.82,-0.295
183.83,-0.305
183.83,-0.3
183.83,-0.315
183.84,-0.325
183.84,-0.3
183.84,-0.315
183.84,-0.305
183.85,-0.31
183.85,-0.325
183.85,-0.335
183.86,-0.315
183.86,-0.315
183.86,-0.325
183.86,-0.325
183.87,-0.335
183.87,-0.335
183.87,-0.32
183.88,-0.325
183.88,-0.31
183.88,-0.325
183.88,-0.345
183.89,-0.345
183.89,-0.34
183.89,-0.32
183.89,-0.325
183.9,-0.335
183.9,-0.35
183.9,-0.34
183.91,-0.34
183.91,-0.33
183.91,-0.325
183.91,-0.33
183.92,-0.345
183.92,-0.345
183.92,-0.335
183.93,-0.32
183.93,-0.325
183.93,-0.33
183.93,-0.345
183.94,-0.35
183.94,-0.335
183.94,-0.32
183.94,-0.325
183.95,-0.325
183.95,-0.335
183.95,-0.345
183.96,-0.32
183.96,-0.32
183.96,-0.32
183.96,-0.35
183.97,-0.345
183.97,-0.335
183.97,-0.32
183.97,-0.315
183.98,-0.295
183.98,-0.3
183.98,-0.285
183.99,-0.28
183.99,-0.26
183.99,-0.25
183.99,-0.245
184,-0.255
184,-0.25
184,-0.255
184.01,-0.235
184.01,-0.225
184.01,-0.215
184.01,-0.22
184.02,-0.225
184.02,-0.245
184.02,-0.225
184.03,-0.22
184.03,-0.225
184.03,-0.235
184.03,-0.255
184.04,-0.26
184.04,-0.24
184.04,-0.235
184.04,-0.235
184.05,-0.25
184.05,-0.26
184.05,-0.27
184.06,-0.245
184.06,-0.22
184.06,-0.205
184.06,-0.225
184.07,-0.25
184.07,-0.28
184.07,-0.28
184.07,-0.295
184.08,-0.305
184.08,-0.32
184.08,-0.345
184.09,-0.35
184.09,-0.35
184.09,-0.34
184.09,-0.34
184.1,-0.35
184.1,-0.35
184.1,-0.355
184.11,-0.355
184.11,-0.355
184.11,-0.36
184.11,-0.355
184.12,-0.365
184.12,-0.37
184.12,-0.365
184.12,-0.365
184.13,-0.36
184.13,-0.365
184.13,-0.36
184.14,-0.365
184.14,-0.36
184.14,-0.36
184.14,-0.37
184.15,-0.395
184.15,-0.445
184.15,-0.485
184.16,-0.495
184.16,-0.52
184.16,-0.55
184.16,-0.555
184.17,-0.475
184.17,-0.355
184.17,-0.185
184.18,-0.015
184.18,0.25
184.18,0.535
184.18,0.765
184.19,0.875
184.19,0.89
184.19,0.71
184.19,0.33
184.2,-0.08
184.2,-0.375
184.2,-0.51
184.21,-0.51
184.21,-0.47
184.21,-0.425
184.21,-0.395
184.22,-0.385
184.22,-0.39
184.22,-0.395
184.22,-0.395
184.23,-0.385
184.23,-0.38
184.23,-0.385
184.24,-0.4
184.24,-0.395
184.24,-0.38
184.24,-0.39
184.25,-0.395
184.25,-0.415
184.25,-0.41
184.26,-0.405
184.26,-0.395
184.26,-0.395
184.26,-0.41
184.27,-0.415
184.27,-0.4
184.27,-0.405
184.28,-0.395
184.28,-0.395
184.28,-0.4
184.28,-0.41
184.29,-0.425
184.29,-0.39
184.29,-0.39
184.29,-0.39
184.3,-0.39
184.3,-0.395
184.3,-0.4
184.31,-0.39
184.31,-0.375
184.31,-0.385
184.31,-0.395
184.32,-0.385
184.32,-0.4
184.32,-0.375
184.32,-0.38
184.33,-0.385
184.33,-0.38
184.33,-0.395
184.34,-0.405
184.34,-0.395
184.34,-0.385
184.34,-0.39
184.35,-0.38
184.35,-0.39
184.35,-0.4
184.36,-0.395
184.36,-0.385
184.36,-0.39
184.36,-0.39
184.37,-0.4
184.37,-0.4
184.37,-0.385
184.38,-0.38
184.38,-0.39
184.38,-0.39
184.38,-0.395
184.39,-0.385
184.39,-0.39
184.39,-0.38
184.39,-0.375
184.4,-0.385
184.4,-0.4
184.4,-0.395
184.41,-0.39
184.41,-0.38
184.41,-0.385
184.41,-0.39
184.42,-0.395
184.42,-0.405
184.42,-0.395
184.43,-0.39
184.43,-0.395
184.43,-0.395
184.43,-0.415
184.44,-0.41
184.44,-0.4
184.44,-0.415
184.44,-0.4
184.45,-0.405
184.45,-0.41
184.45,-0.42
184.46,-0.4
184.46,-0.39
184.46,-0.39
184.46,-0.395
184.47,-0.395
184.47,-0.405
184.47,-0.375
184.47,-0.37
184.48,-0.36
184.48,-0.36
184.48,-0.365
184.49,-0.355
184.49,-0.34
184.49,-0.325
184.49,-0.32
184.5,-0.315
184.5,-0.32
184.5,-0.32
184.51,-0.305
184.51,-0.295
184.51,-0.295
184.51,-0.3
184.52,-0.31
184.52,-0.305
184.52,-0.295
184.53,-0.29
184.53,-0.29
184.53,-0.295
184.53,-0.3
184.54,-0.29
184.54,-0.29
184.54,-0.29
184.54,-0.285
184.55,-0.295
184.55,-0.305
184.55,-0.305
184.56,-0.285
184.56,-0.285
184.56,-0.285
184.56,-0.285
184.57,-0.295
184.57,-0.305
184.57,-0.3
184.57,-0.295
184.58,-0.295
184.58,-0.31
184.58,-0.32
184.59,-0.315
184.59,-0.31
184.59,-0.305
184.59,-0.305
184.6,-0.32
184.6,-0.32
184.6,-0.32
184.61,-0.315
184.61,-0.3
184.61,-0.3
184.61,-0.31
184.62,-0.315
184.62,-0.315
184.62,-0.315
184.62,-0.315
184.63,-0.3
184.63,-0.315
184.63,-0.31
184.64,-0.325
184.64,-0.325
184.64,-0.315
184.64,-0.315
184.65,-0.32
184.65,-0.325
184.65,-0.335
184.66,-0.33
184.66,-0.325
184.66,-0.325
184.66,-0.34
184.67,-0.335
184.67,-0.345
184.67,-0.33
184.68,-0.32
184.68,-0.33
184.68,-0.335
184.68,-0.34
184.69,-0.345
184.69,-0.325
184.69,-0.335
184.69,-0.325
184.7,-0.33
184.7,-0.335
184.7,-0.34
184.71,-0.335
184.71,-0.325
184.71,-0.33
184.71,-0.33
184.72,-0.34
184.72,-0.335
184.72,-0.325
184.72,-0.315
184.73,-0.34
184.73,-0.345
184.73,-0.34
184.74,-0.34
184.74,-0.33
184.74,-0.32
184.74,-0.315
184.75,-0.315
184.75,-0.335
184.75,-0.33
184.76,-0.32
184.76,-0.305
184.76,-0.315
184.76,-0.33
184.77,-0.33
184.77,-0.34
184.77,-0.325
184.78,-0.32
184.78,-0.315
184.78,-0.31
184.78,-0.32
184.79,-0.325
184.79,-0.295
184.79,-0.28
184.79,-0.28
184.8,-0.27
184.8,-0.275
184.8,-0.28
184.81,-0.265
184.81,-0.26
184.81,-0.245
184.81,-0.24
184.82,-0.24
184.82,-0.24
184.82,-0.2
184.82,-0.19
184.83,-0.2
184.83,-0.21
184.83,-0.225
184.84,-0.24
184.84,-0.235
184.84,-0.23
184.84,-0.22
184.85,-0.22
184.85,-0.24
184.85,-0.24
184.86,-0.245
184.86,-0.24
184.86,-0.23
184.86,-0.21
184.87,-0.205
184.87,-0.205
184.87,-0.22
184.88,-0.225
184.88,-0.255
184.88,-0.27
184.88,-0.285
184.89,-0.295
184.89,-0.3
184.89,-0.305
184.89,-0.31
184.9,-0.32
184.9,-0.33
184.9,-0.345
184.91,-0.35
184.91,-0.345
184.91,-0.34
184.91,-0.335
184.92,-0.35
184.92,-0.35
184.92,-0.35
184.93,-0.34
184.93,-0.35
184.93,-0.365
184.93,-0.37
184.94,-0.375
184.94,-0.36
184.94,-0.36
184.94,-0.355
184.95,-0.36
184.95,-0.37
184.95,-0.37
184.96,-0.36
184.96,-0.35
184.96,-0.35
184.96,-0.37
184.97,-0.385
184.97,-0.42
184.97,-0.445
184.97,-0.465
184.98,-0.475
184.98,-0.5
184.98,-0.555
184.99,-0.59
184.99,-0.535
184.99,-0.445
184.99,-0.335
185,-0.215
185,-0.04
185,0.21
185.01,0.475
185.01,0.675
185.01,0.78
185.01,0.775
185.02,0.625
185.02,0.33
185.02,-0.01
185.03,-0.275
185.03,-0.44
185.03,-0.5
185.03,-0.485
185.04,-0.435
185.04,-0.395
185.04,-0.38
185.04,-0.385
185.05,-0.375
185.05,-0.39
185.05,-0.405
185.06,-0.385
185.06,-0.38
185.06,-0.385
185.06,-0.395
185.07,-0.395
185.07,-0.385
185.07,-0.395
185.07,-0.39
185.08,-0.39
185.08,-0.4
185.08,-0.405
185.09,-0.415
185.09,-0.4
185.09,-0.395
185.09,-0.395
185.1,-0.405
185.1,-0.41
185.1,-0.415
185.11,-0.4
185.11,-0.395
185.11,-0.39
185.11,-0.395
185.12,-0.41
185.12,-0.42
185.12,-0.4
185.12,-0.395
185.13,-0.395
185.13,-0.395
185.13,-0.4
185.14,-0.405
185.14,-0.405
185.14,-0.39
185.14,-0.395
185.15,-0.395
185.15,-0.395
185.15,-0.405
185.16,-0.4
185.16,-0.4
185.16,-0.4
185.16,-0.4
185.17,-0.415
185.17,-0.41
185.17,-0.41
185.18,-0.395
185.18,-0.39
185.18,-0.405
185.18,-0.39
185.19,-0.4
185.19,-0.385
185.19,-0.395
185.19,-0.385
185.2,-0.39
185.2,-0.395
185.2,-0.395
185.21,-0.38
185.21,-0.385
185.21,-0.385
185.21,-0.39
185.22,-0.385
185.22,-0.385
185.22,-0.36
185.22,-0.36
185.23,-0.36
185.23,-0.35
185.23,-0.355
185.24,-0.35
185.24,-0.34
185.24,-0.325
185.24,-0.32
185.25,-0.32
185.25,-0.32
185.25,-0.32
185.26,-0.29
185.26,-0.28
185.26,-0.265
185.26,-0.27
185.27,-0.275
185.27,-0.285
185.27,-0.29
185.28,-0.28
185.28,-0.27
185.28,-0.29
185.28,-0.28
185.29,-0.285
185.29,-0.25
185.29,-0.24
185.29,-0.265
185.3,-0.3
185.3,-0.315
185.3,-0.335
185.31,-0.33
185.31,-0.345
185.31,-0.35
185.31,-0.365
185.32,-0.395
185.32,-0.415
185.32,-0.405
185.32,-0.4
185.33,-0.38
185.33,-0.39
185.33,-0.39
185.34,-0.395
185.34,-0.385
185.34,-0.37
185.34,-0.355
185.35,-0.37
185.35,-0.375
185.35,-0.37
185.36,-0.355
185.36,-0.35
185.36,-0.34
185.36,-0.345
185.37,-0.345
185.37,-0.35
185.37,-0.33
185.38,-0.34
185.38,-0.345
185.38,-0.335
185.38,-0.345
185.39,-0.345
185.39,-0.35
185.39,-0.34
185.39,-0.35
185.4,-0.36
185.4,-0.37
185.4,-0.375
185.41,-0.355
185.41,-0.35
185.41,-0.35
185.41,-0.35
185.42,-0.35
185.42,-0.36
185.42,-0.345
185.43,-0.345
185.43,-0.35
185.43,-0.355
185.43,-0.365
185.44,-0.37
185.44,-0.365
185.44,-0.35
185.44,-0.36
185.45,-0.36
185.45,-0.375
185.45,-0.37
185.46,-0.365
185.46,-0.355
185.46,-0.34
185.46,-0.355
185.47,-0.375
185.47,-0.38
185.47,-0.37
185.47,-0.36
185.48,-0.34
185.48,-0.355
185.48,-0.355
185.49,-0.37
185.49,-0.365
185.49,-0.36
185.49,-0.385
185.5,-0.4
185.5,-0.425
185.5,-0.42
185.51,-0.415
185.51,-0.41
185.51,-0.4
185.51,-0.31
185.52,-0.165
185.52,0.025
185.52,0.225
185.53,0.405
185.53,0.635
185.53,0.87
185.53,1.015
185.54,0.995
185.54,0.735
185.54,0.29
185.54,-0.15
185.55,-0.42
185.55,-0.52
185.55,-0.49
185.56,-0.42
185.56,-0.375
185.56,-0.365
185.56,-0.37
185.57,-0.37
185.57,-0.38
185.57,-0.36
185.57,-0.35
185.58,-0.345
185.58,-0.36
185.58,-0.36
185.59,-0.365
185.59,-0.36
185.59,-0.36
185.59,-0.35
185.6,-0.36
185.6,-0.365
185.6,-0.37
185.61,-0.36
185.61,-0.355
185.61,-0.36
185.61,-0.35
185.62,-0.36
185.62,-0.375
185.62,-0.365
185.62,-0.355
185.63,-0.36
185.63,-0.37
185.63,-0.365
185.64,-0.38
185.64,-0.38
185.64,-0.36
185.64,-0.355
185.65,-0.365
185.65,-0.36
185.65,-0.38
185.66,-0.36
185.66,-0.35
185.66,-0.35
185.66,-0.35
185.67,-0.355
185.67,-0.355
185.67,-0.355
185.68,-0.34
185.68,-0.325
185.68,-0.335
185.68,-0.35
185.69,-0.35
185.69,-0.345
185.69,-0.34
185.69,-0.335
185.7,-0.345
185.7,-0.35
185.7,-0.35
185.71,-0.35
185.71,-0.345
185.71,-0.355
185.71,-0.355
185.72,-0.36
185.72,-0.355
185.72,-0.355
185.72,-0.34
185.73,-0.34
185.73,-0.34
185.73,-0.345
185.74,-0.355
185.74,-0.345
185.74,-0.335
185.74,-0.335
185.75,-0.34
185.75,-0.345
185.75,-0.35
185.76,-0.33
185.76,-0.33
185.76,-0.345
185.76,-0.325
185.77,-0.35
185.77,-0.37
185.77,-0.355
185.78,-0.36
185.78,-0.37
185.78,-0.385
185.78,-0.4
185.79,-0.4
185.79,-0.39
185.79,-0.385
185.79,-0.39
185.8,-0.4
185.8,-0.41
185.8,-0.42
185.81,-0.415
185.81,-0.405
185.81,-0.415
185.81,-0.43
185.82,-0.43
185.82,-0.43
185.82,-0.42
185.82,-0.405
185.83,-0.4
185.83,-0.41
185.83,-0.41
185.84,-0.41
185.84,-0.39
185.84,-0.37
185.84,-0.365
185.85,-0.385
185.85,-0.38
185.85,-0.375
185.86,-0.365
185.86,-0.365
185.86,-0.365
185.86,-0.355
185.87,-0.355
185.87,-0.35
185.87,-0.345
185.88,-0.345
185.88,-0.335
185.88,-0.34
185.88,-0.34
185.89,-0.345
185.89,-0.335
185.89,-0.335
185.89,-0.335
185.9,-0.33
185.9,-0.34
185.9,-0.34
185.91,-0.34
185.91,-0.33
185.91,-0.32
185.91,-0.32
185.92,-0.335
185.92,-0.35
185.92,-0.34
185.93,-0.33
185.93,-0.335
185.93,-0.325
185.93,-0.325
185.94,-0.345
185.94,-0.34
185.94,-0.32
185.94,-0.325
185.95,-0.325
185.95,-0.335
185.95,-0.345
185.96,-0.335
185.96,-0.325
185.96,-0.325
185.96,-0.325
185.97,-0.335
185.97,-0.34
185.97,-0.34
185.97,-0.33
185.98,-0.33
185.98,-0.33
185.98,-0.34
185.99,-0.345
185.99,-0.345
185.99,-0.32
185.99,-0.335
186,-0.335
186,-0.34
186,-0.34
186.01,-0.34
186.01,-0.33
186.01,-0.33
186.01,-0.345
186.02,-0.355
186.02,-0.35
186.02,-0.345
186.03,-0.34
186.03,-0.325
186.03,-0.33
186.03,-0.33
186.04,-0.34
186.04,-0.335
186.04,-0.335
186.04,-0.335
186.05,-0.33
186.05,-0.34
186.05,-0.36
186.06,-0.34
186.06,-0.34
186.06,-0.335
186.06,-0.34
186.07,-0.345
186.07,-0.35
186.07,-0.35
186.07,-0.335
186.08,-0.33
186.08,-0.325
186.08,-0.34
186.09,-0.36
186.09,-0.345
186.09,-0.33
186.09,-0.325
186.1,-0.325
186.1,-0.35
186.1,-0.35
186.11,-0.335
186.11,-0.325
186.11,-0.34
186.11,-0.325
186.12,-0.335
186.12,-0.335
186.12,-0.34
186.12,-0.335
186.13,-0.325
186.13,-0.325
186.13,-0.335
186.14,-0.34
186.14,-0.335
186.14,-0.325
186.14,-0.325
186.15,-0.335
186.15,-0.335
186.15,-0.35
186.16,-0.34
186.16,-0.33
186.16,-0.33
186.16,-0.32
186.17,-0.335
186.17,-0.345
186.17,-0.325
186.18,-0.315
186.18,-0.325
186.18,-0.33
186.18,-0.335
186.19,-0.335
186.19,-0.33
186.19,-0.315
186.19,-0.31
186.2,-0.315
186.2,-0.33
186.2,-0.335
186.21,-0.335
186.21,-0.32
186.21,-0.33
186.21,-0.34
186.22,-0.33
186.22,-0.33
186.22,-0.31
186.22,-0.315
186.23,-0.32
186.23,-0.32
186.23,-0.33
186.24,-0.325
186.24,-0.31
186.24,-0.305
186.24,-0.285
186.25,-0.275
186.25,-0.28
186.25,-0.29
186.26,-0.265
186.26,-0.25
186.26,-0.25
186.26,-0.255
186.27,-0.255
186.27,-0.255
186.27,-0.255
186.28,-0.24
186.28,-0.235
186.28,-0.225
186.28,-0.24
186.29,-0.25
186.29,-0.225
186.29,-0.215
186.29,-0.215
186.3,-0.23
186.3,-0.235
186.3,-0.235
186.31,-0.235
186.31,-0.235
186.31,-0.23
186.31,-0.235
186.32,-0.235
186.32,-0.24
186.32,-0.235
186.32,-0.235
186.33,-0.215
186.33,-0.215
186.33,-0.21
186.34,-0.235
186.34,-0.245
186.34,-0.265
186.34,-0.265
186.35,-0.29
186.35,-0.315
186.35,-0.325
186.36,-0.315
186.36,-0.32
186.36,-0.32
186.36,-0.325
186.37,-0.335
186.37,-0.325
186.37,-0.325
186.38,-0.325
186.38,-0.315
186.38,-0.315
186.38,-0.33
186.39,-0.33
186.39,-0.33
186.39,-0.33
186.39,-0.325
186.4,-0.335
186.4,-0.335
186.4,-0.33
186.41,-0.315
186.41,-0.31
186.41,-0.31
186.41,-0.31
186.42,-0.315
186.42,-0.33
186.42,-0.335
186.43,-0.33
186.43,-0.35
186.43,-0.385
186.43,-0.43
186.44,-0.445
186.44,-0.455
186.44,-0.465
186.44,-0.49
186.45,-0.515
186.45,-0.49
186.45,-0.43
186.46,-0.275
186.46,-0.155
186.46,0.01
186.46,0.24
186.47,0.5
186.47,0.725
186.47,0.88
186.47,0.91
186.48,0.73
186.48,0.39
186.48,-0.005
186.49,-0.305
186.49,-0.43
186.49,-0.455
186.49,-0.435
186.5,-0.395
186.5,-0.365
186.5,-0.36
186.51,-0.355
186.51,-0.35
186.51,-0.35
186.51,-0.355
186.52,-0.365
186.52,-0.38
186.52,-0.37
186.53,-0.365
186.53,-0.365
186.53,-0.37
186.53,-0.385
186.54,-0.38
186.54,-0.375
186.54,-0.37
186.54,-0.365
186.55,-0.37
186.55,-0.37
186.55,-0.375
186.56,-0.37
186.56,-0.365
186.56,-0.35
186.56,-0.36
186.57,-0.36
186.57,-0.375
186.57,-0.365
186.57,-0.355
186.58,-0.355
186.58,-0.375
186.58,-0.375
186.59,-0.375
186.59,-0.36
186.59,-0.35
186.59,-0.355
186.6,-0.355
186.6,-0.365
186.6,-0.375
186.61,-0.365
186.61,-0.37
186.61,-0.37
186.61,-0.37
186.62,-0.38
186.62,-0.375
186.62,-0.365
186.62,-0.36
186.63,-0.35
186.63,-0.36
186.63,-0.365
186.64,-0.37
186.64,-0.35
186.64,-0.355
186.64,-0.35
186.65,-0.36
186.65,-0.365
186.65,-0.37
186.66,-0.36
186.66,-0.36
186.66,-0.35
186.66,-0.355
186.67,-0.365
186.67,-0.38
186.67,-0.38
186.68,-0.375
186.68,-0.37
186.68,-0.37
186.68,-0.375
186.69,-0.37
186.69,-0.365
186.69,-0.355
186.69,-0.35
186.7,-0.36
186.7,-0.37
186.7,-0.375
186.71,-0.375
186.71,-0.37
186.71,-0.37
186.71,-0.395
186.72,-0.4
186.72,-0.41
186.72,-0.4
186.72,-0.41
186.73,-0.405
186.73,-0.41
186.73,-0.42
186.74,-0.43
186.74,-0.42
186.74,-0.41
186.74,-0.4
186.75,-0.41
186.75,-0.405
186.75,-0.4
186.76,-0.4
186.76,-0.38
186.76,-0.375
186.76,-0.375
186.77,-0.36
186.77,-0.355
186.77,-0.34
186.78,-0.315
186.78,-0.305
186.78,-0.3
186.78,-0.28
186.79,-0.285
186.79,-0.27
186.79,-0.275
186.79,-0.265
186.8,-0.255
186.8,-0.26
186.8,-0.26
186.81,-0.25
186.81,-0.245
186.81,-0.235
186.81,-0.24
186.82,-0.25
186.82,-0.245
186.82,-0.245
186.82,-0.255
186.83,-0.235
186.83,-0.25
186.83,-0.25
186.84,-0.255
186.84,-0.245
186.84,-0.24
186.84,-0.235
186.85,-0.235
186.85,-0.245
186.85,-0.255
186.86,-0.245
186.86,-0.255
186.86,-0.235
186.86,-0.245
186.87,-0.26
186.87,-0.265
186.87,-0.255
186.88,-0.255
186.88,-0.255
186.88,-0.25
186.88,-0.27
186.89,-0.265
186.89,-0.265
186.89,-0.255
186.89,-0.255
186.9,-0.265
186.9,-0.265
186.9,-0.26
186.91,-0.26
186.91,-0.255
186.91,-0.265
186.91,-0.275
186.92,-0.29
186.92,-0.285
186.92,-0.28
186.93,-0.275
186.93,-0.27
186.93,-0.285
186.93,-0.285
186.94,-0.29
186.94,-0.29
186.94,-0.285
186.94,-0.28
186.95,-0.28
186.95,-0.295
186.95,-0.305
186.96,-0.29
186.96,-0.285
186.96,-0.28
186.96,-0.3
186.97,-0.305
186.97,-0.3
186.97,-0.3
186.97,-0.285
186.98,-0.285
186.98,-0.295
186.98,-0.3
186.99,-0.31
186.99,-0.305
186.99,-0.31
186.99,-0.305
187,-0.315
187,-0.315
187,-0.32
187.01,-0.31
187.01,-0.3
187.01,-0.31
187.01,-0.315
187.02,-0.31
187.02,-0.33
187.02,-0.31
187.03,-0.31
187.03,-0.305
187.03,-0.315
187.03,-0.315
187.04,-0.32
187.04,-0.31
187.04,-0.305
187.04,-0.29
187.05,-0.295
187.05,-0.295
187.05,-0.3
187.06,-0.31
187.06,-0.3
187.06,-0.295
187.06,-0.3
187.07,-0.305
187.07,-0.32
187.07,-0.31
187.07,-0.305
187.08,-0.3
187.08,-0.305
187.08,-0.315
187.09,-0.305
187.09,-0.285
187.09,-0.275
187.09,-0.26
187.1,-0.26
187.1,-0.255
187.1,-0.255
187.11,-0.245
187.11,-0.245
187.11,-0.24
187.11,-0.23
187.12,-0.22
187.12,-0.235
187.12,-0.22
187.12,-0.205
187.13,-0.18
187.13,-0.185
187.13,-0.205
187.14,-0.205
187.14,-0.205
187.14,-0.21
187.14,-0.21
187.15,-0.215
187.15,-0.23
187.15,-0.23
187.16,-0.215
187.16,-0.2
187.16,-0.21
187.16,-0.23
187.17,-0.245
187.17,-0.245
187.17,-0.22
187.18,-0.2
187.18,-0.19
187.18,-0.21
187.18,-0.235
187.19,-0.26
187.19,-0.27
187.19,-0.265
187.19,-0.29
187.2,-0.305
187.2,-0.315
187.2,-0.33
187.21,-0.325
187.21,-0.335
187.21,-0.315
187.21,-0.315
187.22,-0.335
187.22,-0.34
187.22,-0.335
187.22,-0.325
187.23,-0.32
187.23,-0.32
187.23,-0.34
187.24,-0.35
187.24,-0.33
187.24,-0.335
187.24,-0.32
187.25,-0.345
187.25,-0.35
187.25,-0.355
187.26,-0.34
187.26,-0.345
187.26,-0.335
187.26,-0.345
187.27,-0.365
187.27,-0.41
187.27,-0.435
187.28,-0.46
187.28,-0.48
187.28,-0.51
187.28,-0.56
187.29,-0.58
187.29,-0.505
187.29,-0.385
187.29,-0.275
187.3,-0.175
187.3,-0.075
187.3,0.065
187.31,0.275
187.31,0.495
187.31,0.705
187.31,0.86
187.32,0.94
187.32,0.94
187.32,0.795
187.32,0.505
187.33,0.14
187.33,-0.21
187.33,-0.415
187.34,-0.49
187.34,-0.48
187.34,-0.44
187.34,-0.42
187.35,-0.38
187.35,-0.39
187.35,-0.405
187.36,-0.385
187.36,-0.375
187.36,-0.38
187.36,-0.385
187.37,-0.395
187.37,-0.41
187.37,-0.395
187.38,-0.4
187.38,-0.395
187.38,-0.39
187.38,-0.39
187.39,-0.395
187.39,-0.39
187.39,-0.38
187.39,-0.395
187.4,-0.395
187.4,-0.39
187.4,-0.405
187.41,-0.39
187.41,-0.39
187.41,-0.39
187.41,-0.39
187.42,-0.4
187.42,-0.4
187.42,-0.395
187.43,-0.395
187.43,-0.385
187.43,-0.39
187.43,-0.405
187.44,-0.405
187.44,-0.405
187.44,-0.39
187.44,-0.39
187.45,-0.39
187.45,-0.4
187.45,-0.39
187.46,-0.4
187.46,-0.385
187.46,-0.375
187.46,-0.38
187.47,-0.39
187.47,-0.395
187.47,-0.395
187.47,-0.39
187.48,-0.38
187.48,-0.38
187.48,-0.395
187.49,-0.39
187.49,-0.385
187.49,-0.38
187.49,-0.38
187.5,-0.38
187.5,-0.4
187.5,-0.405
187.51,-0.4
187.51,-0.39
187.51,-0.395
187.51,-0.39
187.52,-0.395
187.52,-0.395
187.52,-0.385
187.53,-0.385
187.53,-0.385
187.53,-0.39
187.53,-0.4
187.54,-0.4
187.54,-0.395
187.54,-0.375
187.54,-0.385
187.55,-0.39
187.55,-0.405
187.55,-0.405
187.56,-0.395
187.56,-0.395
187.56,-0.395
187.56,-0.39
187.57,-0.405
187.57,-0.42
187.57,-0.405
187.57,-0.415
187.58,-0.41
187.58,-0.4
187.58,-0.405
187.59,-0.415
187.59,-0.42
187.59,-0.4
187.59,-0.39
187.6,-0.39
187.6,-0.39
187.6,-0.37
187.61,-0.365
187.61,-0.34
187.61,-0.335
187.61,-0.32
187.62,-0.32
187.62,-0.325
187.62,-0.305
187.62,-0.295
187.63,-0.285
187.63,-0.295
187.63,-0.305
187.64,-0.31
187.64,-0.305
187.64,-0.29
187.64,-0.295
187.65,-0.3
187.65,-0.3
187.65,-0.315
187.66,-0.295
187.66,-0.285
187.66,-0.29
187.66,-0.295
187.67,-0.3
187.67,-0.305
187.67,-0.305
187.68,-0.285
187.68,-0.275
187.68,-0.28
187.68,-0.3
187.69,-0.31
187.69,-0.295
187.69,-0.29
187.69,-0.295
187.7,-0.295
187.7,-0.3
187.7,-0.315
187.71,-0.305
187.71,-0.31
187.71,-0.3
187.71,-0.31
187.72,-0.32
187.72,-0.33
187.72,-0.32
187.72,-0.31
187.73,-0.315
187.73,-0.32
187.73,-0.325
187.74,-0.33
187.74,-0.33
187.74,-0.33
187.74,-0.325
187.75,-0.335
187.75,-0.335
187.75,-0.34
187.76,-0.345
187.76,-0.33
187.76,-0.325
187.76,-0.335
187.77,-0.35
187.77,-0.36
187.77,-0.355
187.78,-0.36
187.78,-0.37
187.78,-0.365
187.78,-0.365
187.79,-0.37
187.79,-0.365
187.79,-0.365
187.79,-0.355
187.8,-0.35
187.8,-0.355
187.8,-0.36
187.81,-0.35
187.81,-0.345
187.81,-0.335
187.81,-0.345
187.82,-0.35
187.82,-0.37
187.82,-0.365
187.82,-0.345
187.83,-0.34
187.83,-0.35
187.83,-0.355
187.84,-0.365
187.84,-0.365
187.84,-0.365
187.84,-0.365
187.85,-0.35
187.85,-0.36
187.85,-0.36
187.86,-0.35
187.86,-0.345
187.86,-0.35
187.86,-0.36
187.87,-0.36
187.87,-0.36
187.87,-0.35
187.88,-0.355
187.88,-0.35
187.88,-0.355
187.88,-0.36
187.89,-0.36
187.89,-0.345
187.89,-0.33
187.89,-0.33
187.9,-0.34
187.9,-0.35
187.9,-0.365
187.91,-0.35
187.91,-0.335
187.91,-0.325
187.91,-0.325
187.92,-0.325
187.92,-0.315
187.92,-0.29
187.93,-0.28
187.93,-0.27
187.93,-0.28
187.93,-0.275
187.94,-0.275
187.94,-0.26
187.94,-0.255
187.94,-0.23
187.95,-0.235
187.95,-0.24
187.95,-0.24
187.96,-0.245
187.96,-0.235
187.96,-0.24
187.96,-0.25
187.97,-0.25
187.97,-0.28
187.97,-0.265
187.97,-0.265
187.98,-0.265
187.98,-0.25
187.98,-0.275
187.99,-0.28
187.99,-0.285
187.99,-0.275
187.99,-0.255
188,-0.235
188,-0.235
188,-0.265
188.01,-0.28
188.01,-0.295
188.01,-0.3
188.01,-0.32
188.02,-0.345
188.02,-0.36
188.02,-0.36
188.03,-0.37
188.03,-0.355
188.03,-0.365
188.03,-0.375
188.04,-0.385
188.04,-0.37
188.04,-0.36
188.04,-0.37
188.05,-0.38
188.05,-0.39
188.05,-0.395
188.06,-0.39
188.06,-0.38
188.06,-0.375
188.06,-0.38
188.07,-0.39
188.07,-0.4
188.07,-0.395
188.07,-0.39
188.08,-0.385
188.08,-0.385
188.08,-0.41
188.09,-0.44
188.09,-0.475
188.09,-0.5
188.09,-0.51
188.1,-0.54
188.1,-0.605
188.1,-0.645
188.11,-0.635
188.11,-0.565
188.11,-0.49
188.11,-0.39
188.12,-0.31
188.12,-0.195
188.12,-0.01
188.12,0.245
188.13,0.5
188.13,0.68
188.13,0.78
188.14,0.78
188.14,0.65
188.14,0.35
188.14,-0.02
188.15,-0.34
188.15,-0.51
188.15,-0.535
188.16,-0.495
188.16,-0.45
188.16,-0.42
188.16,-0.445
188.17,-0.44
188.17,-0.435
188.17,-0.43
188.18,-0.42
188.18,-0.415
188.18,-0.425
188.18,-0.445
188.19,-0.445
188.19,-0.45
188.19,-0.44
188.19,-0.44
188.2,-0.445
188.2,-0.455
188.2,-0.46
188.21,-0.455
188.21,-0.445
188.21,-0.45
188.21,-0.445
188.22,-0.45
188.22,-0.445
188.22,-0.445
188.22,-0.445
188.23,-0.445
188.23,-0.435
188.23,-0.445
188.24,-0.45
188.24,-0.45
188.24,-0.42
188.24,-0.42
188.25,-0.425
188.25,-0.45
188.25,-0.445
188.26,-0.45
188.26,-0.44
188.26,-0.43
188.26,-0.44
188.27,-0.45
188.27,-0.455
188.27,-0.45
188.28,-0.44
188.28,-0.44
188.28,-0.455
188.28,-0.465
188.29,-0.47
188.29,-0.455
188.29,-0.45
188.29,-0.445
188.3,-0.45
188.3,-0.46
188.3,-0.455
188.31,-0.45
188.31,-0.445
188.31,-0.435
188.31,-0.45
188.32,-0.445
188.32,-0.45
188.32,-0.43
188.32,-0.435
188.33,-0.425
188.33,-0.435
188.33,-0.445
188.34,-0.455
188.34,-0.435
188.34,-0.44
188.34,-0.44
188.35,-0.445
188.35,-0.445
188.35,-0.465
188.36,-0.47
188.36,-0.46
188.36,-0.45
188.36,-0.455
188.37,-0.47
188.37,-0.49
188.37,-0.5
188.38,-0.48
188.38,-0.475
188.38,-0.48
188.38,-0.49
188.39,-0.49
188.39,-0.495
188.39,-0.48
188.39,-0.485
188.4,-0.485
188.4,-0.49
188.4,-0.49
188.41,-0.47
188.41,-0.46
188.41,-0.455
188.41,-0.44
188.42,-0.455
188.42,-0.435
188.42,-0.42
188.43,-0.4
188.43,-0.4
188.43,-0.385
188.43,-0.395
188.44,-0.395
188.44,-0.39
188.44,-0.37
188.44,-0.375
188.45,-0.365
188.45,-0.365
188.45,-0.37
188.46,-0.355
188.46,-0.35
188.46,-0.35
188.46,-0.355
188.47,-0.36
188.47,-0.375
188.47,-0.375
188.47,-0.375
188.48,-0.355
188.48,-0.36
188.48,-0.375
188.49,-0.37
188.49,-0.36
188.49,-0.36
188.49,-0.365
188.5,-0.365
188.5,-0.37
188.5,-0.38
188.51,-0.385
188.51,-0.395
188.51,-0.39
188.51,-0.385
188.52,-0.385
188.52,-0.395
188.52,-0.385
188.53,-0.375
188.53,-0.37
188.53,-0.38
188.53,-0.39
188.54,-0.395
188.54,-0.4
188.54,-0.375
188.54,-0.375
188.55,-0.37
188.55,-0.385
188.55,-0.4
188.56,-0.41
188.56,-0.4
188.56,-0.39
188.56,-0.415
188.57,-0.42
188.57,-0.425
188.57,-0.425
188.57,-0.415
188.58,-0.41
188.58,-0.415
188.58,-0.425
188.59,-0.43
188.59,-0.43
188.59,-0.42
188.59,-0.41
188.6,-0.395
188.6,-0.405
188.6,-0.415
188.61,-0.41
188.61,-0.41
188.61,-0.41
188.61,-0.41
188.62,-0.42
188.62,-0.42
188.62,-0.42
188.62,-0.405
188.63,-0.4
188.63,-0.41
188.63,-0.43
188.64,-0.425
188.64,-0.43
188.64,-0.43
188.64,-0.41
188.65,-0.42
188.65,-0.42
188.65,-0.425
188.66,-0.42
188.66,-0.41
188.66,-0.41
188.66,-0.405
188.67,-0.405
188.67,-0.41
188.67,-0.41
188.68,-0.41
188.68,-0.405
188.68,-0.42
188.68,-0.425
188.69,-0.425
188.69,-0.42
188.69,-0.41
188.69,-0.4
188.7,-0.4
188.7,-0.395
188.7,-0.375
188.71,-0.36
188.71,-0.35
188.71,-0.34
188.71,-0.34
188.72,-0.34
188.72,-0.345
188.72,-0.33
188.72,-0.32
188.73,-0.315
188.73,-0.32
188.73,-0.315
188.74,-0.32
188.74,-0.345
188.74,-0.33
188.74,-0.325
188.75,-0.315
188.75,-0.33
188.75,-0.345
188.76,-0.33
188.76,-0.34
188.76,-0.37
188.76,-0.37
188.77,-0.365
188.77,-0.365
188.77,-0.335
188.78,-0.31
188.78,-0.295
188.78,-0.32
188.78,-0.345
188.79,-0.385
188.79,-0.39
188.79,-0.395
188.79,-0.405
188.8,-0.425
188.8,-0.425
188.8,-0.435
188.81,-0.445
188.81,-0.435
188.81,-0.43
188.81,-0.435
188.82,-0.445
188.82,-0.45
188.82,-0.465
188.82,-0.45
188.83,-0.435
188.83,-0.445
188.83,-0.46
188.84,-0.46
188.84,-0.47
188.84,-0.46
188.84,-0.465
188.85,-0.465
188.85,-0.465
188.85,-0.47
188.86,-0.465
188.86,-0.46
188.86,-0.455
188.86,-0.45
188.87,-0.47
188.87,-0.5
188.87,-0.535
188.88,-0.545
188.88,-0.56
188.88,-0.6
188.88,-0.64
188.89,-0.65
188.89,-0.58
188.89,-0.455
188.89,-0.315
188.9,-0.14
188.9,0.1
188.9,0.355
188.91,0.61
188.91,0.765
188.91,0.8
188.91,0.67
188.92,0.37
188.92,-0.005
188.92,-0.31
188.93,-0.48
188.93,-0.56
188.93,-0.59
188.93,-0.58
188.94,-0.545
188.94,-0.51
188.94,-0.485
188.94,-0.495
188.95,-0.495
188.95,-0.495
188.95,-0.5
188.96,-0.49
188.96,-0.48
188.96,-0.485
188.96,-0.49
188.97,-0.505
188.97,-0.515
188.97,-0.51
188.97,-0.5
188.98,-0.5
188.98,-0.495
188.98,-0.505
188.99,-0.515
188.99,-0.505
188.99,-0.49
188.99,-0.495
189,-0.49
189,-0.505
189,-0.515
189.01,-0.51
189.01,-0.485
189.01,-0.49
189.01,-0.49
189.02,-0.49
189.02,-0.5
189.02,-0.505
189.03,-0.49
189.03,-0.48
189.03,-0.5
189.03,-0.5
189.04,-0.51
189.04,-0.5
189.04,-0.49
189.04,-0.49
189.05,-0.49
189.05,-0.5
189.05,-0.5
189.06,-0.505
189.06,-0.495
189.06,-0.495
189.06,-0.49
189.07,-0.485
189.07,-0.495
189.07,-0.49
189.07,-0.48
189.08,-0.475
189.08,-0.475
189.08,-0.48
189.09,-0.49
189.09,-0.49
189.09,-0.485
189.09,-0.48
189.1,-0.485
189.1,-0.485
189.1,-0.495
189.11,-0.5
189.11,-0.475
189.11,-0.475
189.11,-0.485
189.12,-0.495
189.12,-0.495
189.12,-0.485
189.12,-0.485
189.13,-0.485
189.13,-0.49
189.13,-0.495
189.14,-0.51
189.14,-0.49
189.14,-0.48
189.14,-0.475
189.15,-0.475
189.15,-0.485
189.15,-0.5
189.16,-0.51
189.16,-0.505
189.16,-0.51
189.16,-0.51
189.17,-0.515
189.17,-0.53
189.17,-0.525
189.18,-0.52
189.18,-0.52
189.18,-0.525
189.18,-0.535
189.19,-0.55
189.19,-0.535
189.19,-0.51
189.19,-0.495
189.2,-0.49
189.2,-0.495
189.2,-0.485
189.21,-0.455
189.21,-0.435
189.21,-0.43
189.21,-0.42
189.22,-0.41
189.22,-0.41
189.22,-0.385
189.22,-0.37
189.23,-0.355
189.23,-0.355
189.23,-0.355
189.24,-0.365
189.24,-0.355
189.24,-0.345
189.24,-0.335
189.25,-0.34
189.25,-0.35
189.25,-0.355
189.26,-0.35
189.26,-0.34
189.26,-0.34
189.26,-0.34
189.27,-0.355
189.27,-0.355
189.27,-0.355
189.28,-0.35
189.28,-0.34
189.28,-0.345
189.28,-0.355
189.29,-0.35
189.29,-0.345
189.29,-0.35
189.29,-0.35
189.3,-0.345
189.3,-0.34
189.3,-0.35
189.31,-0.335
189.31,-0.34
189.31,-0.34
189.31,-0.345
189.32,-0.34
189.32,-0.35
189.32,-0.35
189.32,-0.335
189.33,-0.34
189.33,-0.35
189.33,-0.36
189.34,-0.37
189.34,-0.36
189.34,-0.35
189.34,-0.35
189.35,-0.35
189.35,-0.365
189.35,-0.37
189.36,-0.365
189.36,-0.36
189.36,-0.355
189.36,-0.365
189.37,-0.37
189.37,-0.38
189.37,-0.375
189.38,-0.35
189.38,-0.36
189.38,-0.365
189.38,-0.37
189.39,-0.375
189.39,-0.365
189.39,-0.365
189.39,-0.365
189.4,-0.365
189.4,-0.375
189.4,-0.375
189.41,-0.375
189.41,-0.37
189.41,-0.375
189.41,-0.385
189.42,-0.39
189.42,-0.385
189.42,-0.375
189.43,-0.37
189.43,-0.36
189.43,-0.37
189.43,-0.365
189.44,-0.375
189.44,-0.36
189.44,-0.355
189.44,-0.35
189.45,-0.37
189.45,-0.365
189.45,-0.38
189.46,-0.375
189.46,-0.365
189.46,-0.36
189.46,-0.355
189.47,-0.36
189.47,-0.365
189.47,-0.355
189.47,-0.335
189.48,-0.33
189.48,-0.34
189.48,-0.35
189.49,-0.355
189.49,-0.355
189.49,-0.345
189.49,-0.34
189.5,-0.345
189.5,-0.345
189.5,-0.355
189.51,-0.345
189.51,-0.325
189.51,-0.315
189.51,-0.3
189.52,-0.295
189.52,-0.3
189.52,-0.29
189.53,-0.275
189.53,-0.265
189.53,-0.275
189.53,-0.26
189.54,-0.26
189.54,-0.25
189.54,-0.235
189.54,-0.235
189.55,-0.24
189.55,-0.24
189.55,-0.26
189.56,-0.255
189.56,-0.25
189.56,-0.24
189.56,-0.27
189.57,-0.27
189.57,-0.27
189.57,-0.27
189.57,-0.275
189.58,-0.265
189.58,-0.265
189.58,-0.24
189.59,-0.25
189.59,-0.26
189.59,-0.27
189.59,-0.275
189.6,-0.295
189.6,-0.32
189.6,-0.34
189.61,-0.34
189.61,-0.345
189.61,-0.34
189.61,-0.35
189.62,-0.355
189.62,-0.36
189.62,-0.36
189.62,-0.36
189.63,-0.35
189.63,-0.365
189.63,-0.365
189.64,-0.37
189.64,-0.37
189.64,-0.35
189.64,-0.35
189.65,-0.355
189.65,-0.36
189.65,-0.365
189.66,-0.38
189.66,-0.36
189.66,-0.36
189.66,-0.365
189.67,-0.38
189.67,-0.385
189.67,-0.375
189.68,-0.365
189.68,-0.37
189.68,-0.37
189.68,-0.375
189.69,-0.39
189.69,-0.425
189.69,-0.455
189.69,-0.47
189.7,-0.485
189.7,-0.54
189.7,-0.565
189.71,-0.535
189.71,-0.445
189.71,-0.29
189.71,-0.125
189.72,0.07
189.72,0.335
189.72,0.625
189.72,0.845
189.73,0.955
189.73,0.89
189.73,0.645
189.74,0.24
189.74,-0.165
189.74,-0.415
189.74,-0.475
189.75,-0.46
189.75,-0.42
189.75,-0.395
189.76,-0.385
189.76,-0.37
189.76,-0.38
189.76,-0.385
189.77,-0.4
189.77,-0.41
189.77,-0.405
189.78,-0.395
189.78,-0.39
189.78,-0.395
189.78,-0.395
189.79,-0.405
189.79,-0.4
189.79,-0.405
189.79,-0.4
189.8,-0.405
189.8,-0.405
189.8,-0.405
189.81,-0.4
189.81,-0.395
189.81,-0.385
189.81,-0.39
189.82,-0.395
189.82,-0.395
189.82,-0.395
189.82,-0.385
189.83,-0.375
189.83,-0.375
189.83,-0.385
189.84,-0.4
189.84,-0.395
189.84,-0.39
189.84,-0.385
189.85,-0.39
189.85,-0.385
189.85,-0.4
189.86,-0.395
189.86,-0.4
189.86,-0.38
189.86,-0.38
189.87,-0.395
189.87,-0.405
189.87,-0.39
189.88,-0.39
189.88,-0.375
189.88,-0.38
189.88,-0.38
189.89,-0.395
189.89,-0.395
189.89,-0.38
189.89,-0.38
189.9,-0.38
189.9,-0.39
189.9,-0.4
189.91,-0.395
189.91,-0.38
189.91,-0.375
189.91,-0.375
189.92,-0.39
189.92,-0.4
189.92,-0.39
189.93,-0.375
189.93,-0.38
189.93,-0.385
189.93,-0.385
189.94,-0.395
189.94,-0.395
189.94,-0.395
189.94,-0.375
189.95,-0.38
189.95,-0.39
189.95,-0.4
189.96,-0.395
189.96,-0.395
189.96,-0.39
189.96,-0.385
189.97,-0.39
189.97,-0.395
189.97,-0.395
189.97,-0.385
189.98,-0.38
189.98,-0.385
189.98,-0.39
189.99,-0.385
189.99,-0.39
189.99,-0.38
189.99,-0.38
190,-0.39
190,-0.39
190,-0.4
190.01,-0.39
190.01,-0.385
190.01,-0.385
190.01,-0.39
190.02,-0.395
190.02,-0.39
190.02,-0.385
190.03,-0.36
190.03,-0.355
190.03,-0.345
190.03,-0.35
190.04,-0.34
190.04,-0.33
190.04,-0.295
190.04,-0.295
190.05,-0.29
190.05,-0.305
190.05,-0.3
190.06,-0.285
190.06,-0.28
190.06,-0.26
190.06,-0.27
190.07,-0.28
190.07,-0.29
190.07,-0.285
190.07,-0.275
190.08,-0.265
190.08,-0.27
190.08,-0.27
190.09,-0.285
190.09,-0.28
190.09,-0.28
190.09,-0.26
190.1,-0.28
190.1,-0.285
190.1,-0.29
190.11,-0.285
190.11,-0.27
190.11,-0.27
190.11,-0.28
190.12,-0.28
190.12,-0.295
190.12,-0.28
190.12,-0.29
190.13,-0.285
190.13,-0.285
190.13,-0.295
190.14,-0.305
190.14,-0.295
190.14,-0.295
190.14,-0.285
190.15,-0.29
190.15,-0.3
190.15,-0.315
190.16,-0.305
190.16,-0.295
190.16,-0.29
190.16,-0.305
190.17,-0.305
190.17,-0.315
190.17,-0.315
190.18,-0.305
190.18,-0.3
190.18,-0.305
190.18,-0.32
190.19,-0.33
190.19,-0.325
190.19,-0.305
190.19,-0.305
190.2,-0.31
190.2,-0.32
190.2,-0.325
190.21,-0.32
190.21,-0.315
190.21,-0.31
190.21,-0.32
190.22,-0.315
190.22,-0.33
190.22,-0.325
190.22,-0.325
190.23,-0.32
190.23,-0.32
190.23,-0.325
190.24,-0.335
190.24,-0.33
190.24,-0.32
190.24,-0.31
190.25,-0.315
190.25,-0.325
190.25,-0.33
190.26,-0.31
190.26,-0.305
190.26,-0.305
190.26,-0.29
190.27,-0.3
190.27,-0.31
190.27,-0.31
190.28,-0.295
190.28,-0.295
190.28,-0.295
190.28,-0.295
190.29,-0.3
190.29,-0.3
190.29,-0.3
190.29,-0.29
190.3,-0.3
190.3,-0.31
190.3,-0.325
190.31,-0.31
190.31,-0.3
190.31,-0.29
190.31,-0.3
190.32,-0.29
190.32,-0.3
190.32,-0.295
190.32,-0.275
190.33,-0.255
190.33,-0.245
190.33,-0.235
190.34,-0.24
190.34,-0.235
190.34,-0.225
190.34,-0.22
190.35,-0.205
190.35,-0.2
190.35,-0.2
190.36,-0.185
190.36,-0.175
190.36,-0.18
190.36,-0.185
190.37,-0.205
190.37,-0.215
190.37,-0.22
190.38,-0.21
190.38,-0.21
190.38,-0.205
190.38,-0.235
190.39,-0.235
190.39,-0.215
190.39,-0.195
190.39,-0.17
190.4,-0.185
190.4,-0.23
190.4,-0.255
190.41,-0.26
190.41,-0.27
190.41,-0.275
190.41,-0.29
190.42,-0.305
190.42,-0.315
190.42,-0.305
190.43,-0.305
190.43,-0.3
190.43,-0.315
190.43,-0.315
190.44,-0.32
190.44,-0.325
190.44,-0.31
190.44,-0.32
190.45,-0.32
190.45,-0.325
190.45,-0.335
190.46,-0.325
190.46,-0.33
190.46,-0.315
190.46,-0.325
190.47,-0.325
190.47,-0.335
190.47,-0.335
190.47,-0.315
190.48,-0.315
190.48,-0.32
190.48,-0.325
190.49,-0.35
190.49,-0.37
190.49,-0.41
190.49,-0.425
190.5,-0.435
190.5,-0.44
190.5,-0.48
190.51,-0.525
190.51,-0.565
190.51,-0.55
190.51,-0.525
190.52,-0.48
190.52,-0.385
190.52,-0.255
190.53,-0.135
190.53,0.035
190.53,0.26
190.53,0.495
190.54,0.715
190.54,0.87
190.54,0.925
190.54,0.79
190.55,0.47
190.55,0.07
190.55,-0.27
190.56,-0.43
190.56,-0.455
190.56,-0.405
190.56,-0.345
190.57,-0.335
190.57,-0.355
190.57,-0.345
190.57,-0.34
190.58,-0.335
190.58,-0.33
190.58,-0.345
190.59,-0.355
190.59,-0.35
190.59,-0.345
190.59,-0.34
190.6,-0.34
190.6,-0.345
190.6,-0.37
190.61,-0.355
190.61,-0.35
190.61,-0.355
190.61,-0.355
190.62,-0.365
190.62,-0.365
190.62,-0.365
190.62,-0.35
190.63,-0.335
190.63,-0.335
190.63,-0.35
190.64,-0.355
190.64,-0.345
190.64,-0.335
190.64,-0.335
190.65,-0.33
190.65,-0.345
190.65,-0.35
190.66,-0.355
190.66,-0.33
190.66,-0.33
190.66,-0.335
190.67,-0.335
190.67,-0.35
190.67,-0.345
190.68,-0.345
190.68,-0.33
190.68,-0.35
190.68,-0.345
190.69,-0.35
190.69,-0.35
190.69,-0.34
190.69,-0.335
190.7,-0.34
190.7,-0.345
190.7,-0.36
190.71,-0.345
190.71,-0.335
190.71,-0.33
190.71,-0.33
190.72,-0.34
190.72,-0.345
190.72,-0.34
190.72,-0.335
190.73,-0.315
190.73,-0.315
190.73,-0.325
190.74,-0.34
190.74,-0.33
190.74,-0.33
190.74,-0.325
190.75,-0.315
190.75,-0.32
190.75,-0.34
190.76,-0.33
190.76,-0.325
190.76,-0.32
190.76,-0.32
190.77,-0.335
190.77,-0.345
190.77,-0.335
190.78,-0.325
190.78,-0.33
190.78,-0.34
190.78,-0.345
190.79,-0.35
190.79,-0.35
190.79,-0.335
190.79,-0.34
190.8,-0.345
190.8,-0.345
190.8,-0.355
190.81,-0.355
190.81,-0.345
190.81,-0.34
190.81,-0.345
190.82,-0.35
190.82,-0.36
190.82,-0.355
190.82,-0.35
190.83,-0.33
190.83,-0.33
190.83,-0.325
190.84,-0.34
190.84,-0.315
190.84,-0.3
190.84,-0.295
190.85,-0.285
190.85,-0.285
190.85,-0.285
190.86,-0.275
190.86,-0.255
190.86,-0.25
190.86,-0.245
190.87,-0.255
190.87,-0.275
190.87,-0.26
190.88,-0.24
190.88,-0.23
190.88,-0.24
190.88,-0.245
190.89,-0.25
190.89,-0.24
190.89,-0.235
190.89,-0.235
190.9,-0.245
190.9,-0.255
190.9,-0.26
190.91,-0.255
190.91,-0.25
190.91,-0.245
190.91,-0.25
190.92,-0.255
190.92,-0.265
190.92,-0.255
190.93,-0.24
190.93,-0.245
190.93,-0.25
190.93,-0.26
190.94,-0.265
190.94,-0.265
190.94,-0.265
190.94,-0.255
190.95,-0.255
190.95,-0.27
190.95,-0.27
190.96,-0.265
190.96,-0.255
190.96,-0.25
190.96,-0.255
190.97,-0.27
190.97,-0.275
190.97,-0.28
190.97,-0.28
190.98,-0.275
190.98,-0.28
190.98,-0.29
190.99,-0.3
190.99,-0.3
190.99,-0.3
190.99,-0.305
191,-0.3
191,-0.31
191,-0.325
191.01,-0.31
191.01,-0.3
191.01,-0.29
191.01,-0.295
191.02,-0.3
191.02,-0.325
191.02,-0.315
191.03,-0.29
191.03,-0.285
191.03,-0.295
191.03,-0.3
191.04,-0.31
191.04,-0.31
191.04,-0.305
191.04,-0.29
191.05,-0.3
191.05,-0.315
191.05,-0.345
191.06,-0.325
191.06,-0.32
191.06,-0.295
191.06,-0.31
191.07,-0.315
191.07,-0.32
191.07,-0.31
191.07,-0.31
191.08,-0.305
191.08,-0.295
191.08,-0.3
191.09,-0.295
191.09,-0.29
191.09,-0.295
191.09,-0.29
191.1,-0.3
191.1,-0.305
191.1,-0.305
191.11,-0.305
191.11,-0.28
191.11,-0.28
191.11,-0.275
191.12,-0.285
191.12,-0.31
191.12,-0.29
191.12,-0.285
191.13,-0.265
191.13,-0.255
191.13,-0.25
191.14,-0.255
191.14,-0.25
191.14,-0.245
191.14,-0.24
191.15,-0.215
191.15,-0.21
191.15,-0.225
191.16,-0.215
191.16,-0.205
191.16,-0.185
191.16,-0.175
191.17,-0.195
191.17,-0.19
191.17,-0.175
191.18,-0.18
191.18,-0.18
191.18,-0.19
191.18,-0.205
191.19,-0.215
191.19,-0.2
191.19,-0.19
191.19,-0.195
191.2,-0.215
191.2,-0.23
191.2,-0.24
191.21,-0.23
191.21,-0.205
191.21,-0.19
191.21,-0.205
191.22,-0.23
191.22,-0.26
191.22,-0.265
191.22,-0.26
191.23,-0.285
191.23,-0.305
191.23,-0.31
191.24,-0.325
191.24,-0.325
191.24,-0.33
191.24,-0.315
191.25,-0.305
191.25,-0.3
191.25,-0.32
191.26,-0.325
191.26,-0.33
191.26,-0.305
191.26,-0.31
191.27,-0.315
191.27,-0.325
191.27,-0.33
191.28,-0.32
191.28,-0.32
191.28,-0.33
191.28,-0.345
191.29,-0.345
191.29,-0.335
191.29,-0.33
191.29,-0.325
191.3,-0.33
191.3,-0.36
191.3,-0.385
191.31,-0.395
191.31,-0.42
191.31,-0.405
191.31,-0.415
191.32,-0.43
191.32,-0.51
191.32,-0.535
191.32,-0.525
191.33,-0.46
191.33,-0.365
191.33,-0.27
191.34,-0.14
191.34,0.05
191.34,0.3
191.34,0.555
191.35,0.755
191.35,0.86
191.35,0.82
191.36,0.625
191.36,0.305
191.36,-0.035
191.36,-0.275
191.37,-0.43
191.37,-0.47
191.37,-0.44
191.38,-0.4
191.38,-0.375
191.38,-0.375
191.38,-0.385
191.39,-0.395
191.39,-0.37
191.39,-0.37
191.39,-0.365
191.4,-0.365
191.4,-0.38
191.4,-0.39
191.41,-0.38
191.41,-0.37
191.41,-0.355
191.41,-0.36
191.42,-0.365
191.42,-0.37
191.42,-0.375
191.43,-0.365
191.43,-0.36
191.43,-0.355
191.43,-0.375
191.44,-0.385
191.44,-0.385
191.44,-0.375
191.44,-0.37
191.45,-0.375
191.45,-0.375
191.45,-0.38
191.46,-0.365
191.46,-0.37
191.46,-0.37
191.46,-0.355
191.47,-0.365
191.47,-0.38
191.47,-0.375
191.47,-0.37
191.48,-0.375
191.48,-0.375
191.48,-0.36
191.49,-0.385
191.49,-0.37
191.49,-0.37
191.49,-0.365
191.5,-0.355
191.5,-0.35
191.5,-0.365
191.51,-0.36
191.51,-0.36
191.51,-0.355
191.51,-0.36
191.52,-0.375
191.52,-0.385
191.52,-0.385
191.53,-0.37
191.53,-0.37
191.53,-0.365
191.53,-0.365
191.54,-0.37
191.54,-0.365
191.54,-0.36
191.54,-0.36
191.55,-0.365
191.55,-0.365
191.55,-0.38
191.56,-0.365
191.56,-0.365
191.56,-0.365
191.56,-0.365
191.57,-0.385
191.57,-0.375
191.57,-0.385
191.57,-0.375
191.58,-0.355
191.58,-0.355
191.58,-0.375
191.59,-0.385
191.59,-0.385
191.59,-0.38
191.59,-0.395
191.6,-0.405
191.6,-0.42
191.6,-0.43
191.61,-0.415
191.61,-0.405
191.61,-0.405
191.61,-0.41
191.62,-0.425
191.62,-0.415
191.62,-0.415
191.62,-0.405
191.63,-0.405
191.63,-0.41
191.63,-0.425
191.64,-0.43
191.64,-0.425
191.64,-0.42
191.64,-0.405
191.65,-0.39
191.65,-0.38
191.65,-0.375
191.66,-0.365
191.66,-0.35
191.66,-0.335
191.66,-0.34
191.67,-0.33
191.67,-0.335
191.67,-0.335
191.68,-0.31
191.68,-0.295
191.68,-0.29
191.68,-0.295
191.69,-0.29
191.69,-0.275
191.69,-0.27
191.69,-0.265
191.7,-0.27
191.7,-0.28
191.7,-0.295
191.71,-0.285
191.71,-0.27
191.71,-0.26
191.71,-0.27
191.72,-0.285
191.72,-0.29
191.72,-0.28
191.72,-0.27
191.73,-0.265
191.73,-0.27
191.73,-0.28
191.74,-0.29
191.74,-0.285
191.74,-0.275
191.74,-0.265
191.75,-0.27
191.75,-0.27
191.75,-0.28
191.76,-0.275
191.76,-0.275
191.76,-0.27
191.76,-0.275
191.77,-0.29
191.77,-0.3
191.77,-0.295
191.78,-0.285
191.78,-0.265
191.78,-0.275
191.78,-0.285
191.79,-0.295
191.79,-0.29
191.79,-0.295
191.79,-0.295
191.8,-0.285
191.8,-0.3
191.8,-0.305
191.81,-0.305
191.81,-0.295
191.81,-0.285
191.81,-0.295
191.82,-0.3
191.82,-0.31
191.82,-0.31
191.82,-0.3
191.83,-0.295
191.83,-0.3
191.83,-0.315
191.84,-0.33
191.84,-0.325
191.84,-0.315
191.84,-0.3
191.85,-0.305
191.85,-0.3
191.85,-0.32
191.86,-0.31
191.86,-0.31
191.86,-0.295
191.86,-0.305
191.87,-0.315
191.87,-0.32
191.87,-0.315
191.88,-0.315
191.88,-0.305
191.88,-0.305
191.88,-0.305
191.89,-0.32
191.89,-0.315
191.89,-0.315
191.89,-0.31
191.9,-0.3
191.9,-0.315
191.9,-0.315
191.91,-0.32
191.91,-0.31
191.91,-0.31
191.91,-0.3
191.92,-0.305
191.92,-0.315
191.92,-0.315
191.93,-0.3
191.93,-0.295
191.93,-0.3
191.93,-0.305
191.94,-0.315
191.94,-0.315
191.94,-0.3
191.94,-0.31
191.95,-0.305
191.95,-0.31
191.95,-0.325
191.96,-0.315
191.96,-0.315
191.96,-0.3
191.96,-0.285
191.97,-0.3
191.97,-0.29
191.97,-0.285
191.97,-0.26
191.98,-0.24
191.98,-0.255
191.98,-0.25
191.99,-0.26
191.99,-0.25
191.99,-0.225
191.99,-0.22
192,-0.215
192,-0.21
192,-0.215
192.01,-0.205
192.01,-0.19
192.01,-0.175
192.01,-0.185
192.02,-0.195
192.02,-0.2
192.02,-0.21
192.03,-0.21
192.03,-0.2
192.03,-0.2
192.03,-0.205
192.04,-0.225
192.04,-0.22
192.04,-0.22
192.04,-0.195
192.05,-0.185
192.05,-0.195
192.05,-0.215
192.06,-0.235
192.06,-0.245
192.06,-0.245
192.06,-0.26
192.07,-0.285
192.07,-0.3
192.07,-0.3
192.07,-0.295
192.08,-0.295
192.08,-0.295
192.08,-0.305
192.09,-0.31
192.09,-0.305
192.09,-0.305
192.09,-0.3
192.1,-0.3
192.1,-0.305
192.1,-0.32
192.11,-0.31
192.11,-0.305
192.11,-0.29
192.11,-0.305
192.12,-0.3
192.12,-0.32
192.12,-0.32
192.12,-0.305
192.13,-0.31
192.13,-0.315
192.13,-0.315
192.14,-0.32
192.14,-0.32
192.14,-0.315
192.14,-0.315
192.15,-0.305
192.15,-0.32
192.15,-0.35
192.16,-0.37
192.16,-0.39
192.16,-0.41
192.16,-0.43
192.17,-0.475
192.17,-0.505
192.17,-0.49
192.18,-0.405
192.18,-0.28
192.18,-0.145
192.18,0
192.19,0.215
192.19,0.47
192.19,0.705
192.19,0.875
192.2,0.925
192.2,0.81
192.2,0.545
192.21,0.18
192.21,-0.135
192.21,-0.33
192.21,-0.4
192.22,-0.425
192.22,-0.39
192.22,-0.35
192.22,-0.33
192.23,-0.325
192.23,-0.315
192.23,-0.325
192.24,-0.335
192.24,-0.33
192.24,-0.32
192.24,-0.32
192.25,-0.32
192.25,-0.33
192.25,-0.34
192.26,-0.34
192.26,-0.33
192.26,-0.32
192.26,-0.32
192.27,-0.325
192.27,-0.34
192.27,-0.34
192.28,-0.33
192.28,-0.335
192.28,-0.325
192.28,-0.33
192.29,-0.34
192.29,-0.335
192.29,-0.34
192.29,-0.315
192.3,-0.315
192.3,-0.325
192.3,-0.33
192.31,-0.325
192.31,-0.32
192.31,-0.31
192.31,-0.315
192.32,-0.32
192.32,-0.335
192.32,-0.335
192.32,-0.325
192.33,-0.325
192.33,-0.315
192.33,-0.33
192.34,-0.33
192.34,-0.33
192.34,-0.32
192.34,-0.315
192.35,-0.32
192.35,-0.32
192.35,-0.325
192.36,-0.325
192.36,-0.32
192.36,-0.305
192.36,-0.315
192.37,-0.32
192.37,-0.32
192.37,-0.32
192.38,-0.315
192.38,-0.305
192.38,-0.31
192.38,-0.325
192.39,-0.33
192.39,-0.325
192.39,-0.32
192.39,-0.31
192.4,-0.325
192.4,-0.32
192.4,-0.33
192.41,-0.335
192.41,-0.32
192.41,-0.325
192.41,-0.32
192.42,-0.325
192.42,-0.335
192.42,-0.34
192.43,-0.33
192.43,-0.32
192.43,-0.32
192.43,-0.335
192.44,-0.35
192.44,-0.335
192.44,-0.335
192.44,-0.335
192.45,-0.34
192.45,-0.35
192.45,-0.355
192.46,-0.36
192.46,-0.355
192.46,-0.345
192.46,-0.34
192.47,-0.36
192.47,-0.37
192.47,-0.37
192.47,-0.36
192.48,-0.365
192.48,-0.365
192.48,-0.365
192.49,-0.375
192.49,-0.38
192.49,-0.365
192.49,-0.36
192.5,-0.365
192.5,-0.365
192.5,-0.355
192.51,-0.345
192.51,-0.33
192.51,-0.32
192.51,-0.315
192.52,-0.31
192.52,-0.305
192.52,-0.295
192.53,-0.28
192.53,-0.265
192.53,-0.25
192.53,-0.26
192.54,-0.255
192.54,-0.265
192.54,-0.25
192.54,-0.235
192.55,-0.23
192.55,-0.23
192.55,-0.24
192.56,-0.24
192.56,-0.23
192.56,-0.22
192.56,-0.215
192.57,-0.225
192.57,-0.235
192.57,-0.225
192.57,-0.235
192.58,-0.215
192.58,-0.225
192.58,-0.235
192.59,-0.245
192.59,-0.245
192.59,-0.24
192.59,-0.225
192.6,-0.23
192.6,-0.235
192.6,-0.25
192.61,-0.25
192.61,-0.245
192.61,-0.23
192.61,-0.23
192.62,-0.245
192.62,-0.255
192.62,-0.25
192.62,-0.25
192.63,-0.23
192.63,-0.24
192.63,-0.24
192.64,-0.245
192.64,-0.245
192.64,-0.235
192.64,-0.24
192.65,-0.235
192.65,-0.245
192.65,-0.255
192.66,-0.25
192.66,-0.245
192.66,-0.245
192.66,-0.24
192.67,-0.255
192.67,-0.275
192.67,-0.275
192.68,-0.26
192.68,-0.27
192.68,-0.265
192.68,-0.265
192.69,-0.275
192.69,-0.275
192.69,-0.265
192.69,-0.265
192.7,-0.265
192.7,-0.275
192.7,-0.285
192.71,-0.275
192.71,-0.285
192.71,-0.265
192.71,-0.265
192.72,-0.265
192.72,-0.275
192.72,-0.285
192.72,-0.27
192.73,-0.27
192.73,-0.27
192.73,-0.265
192.74,-0.28
192.74,-0.27
192.74,-0.27
192.74,-0.27
192.75,-0.265
192.75,-0.275
192.75,-0.285
192.76,-0.28
192.76,-0.275
192.76,-0.275
192.76,-0.275
192.77,-0.29
192.77,-0.295
192.77,-0.3
192.78,-0.285
192.78,-0.275
192.78,-0.28
192.78,-0.28
192.79,-0.295
192.79,-0.3
192.79,-0.29
192.79,-0.28
192.8,-0.27
192.8,-0.285
192.8,-0.3
192.81,-0.29
192.81,-0.28
192.81,-0.27
192.81,-0.265
192.82,-0.275
192.82,-0.285
192.82,-0.285
192.82,-0.265
192.83,-0.26
192.83,-0.265
192.83,-0.285
192.84,-0.285
192.84,-0.28
192.84,-0.26
192.84,-0.245
192.85,-0.235
192.85,-0.225
192.85,-0.225
192.86,-0.22
192.86,-0.22
192.86,-0.2
192.86,-0.205
192.87,-0.21
192.87,-0.215
192.87,-0.2
192.88,-0.18
192.88,-0.185
192.88,-0.175
192.88,-0.18
192.89,-0.18
192.89,-0.175
192.89,-0.16
192.89,-0.155
192.9,-0.155
192.9,-0.185
192.9,-0.195
192.91,-0.195
192.91,-0.195
192.91,-0.18
192.91,-0.19
192.92,-0.195
192.92,-0.21
192.92,-0.205
192.93,-0.17
192.93,-0.15
192.93,-0.17
192.93,-0.2
192.94,-0.245
192.94,-0.255
192.94,-0.255
192.94,-0.25
192.95,-0.255
192.95,-0.28
192.95,-0.305
192.96,-0.31
192.96,-0.3
192.96,-0.295
192.96,-0.3
192.97,-0.31
192.97,-0.31
192.97,-0.315
192.97,-0.31
192.98,-0.31
192.98,-0.315
192.98,-0.32
192.99,-0.32
192.99,-0.32
192.99,-0.31
192.99,-0.305
193,-0.315
193,-0.32
193,-0.32
193.01,-0.32
193.01,-0.31
193.01,-0.315
193.01,-0.31
193.02,-0.33
193.02,-0.37
193.02,-0.41
193.03,-0.42
193.03,-0.425
193.03,-0.44
193.03,-0.485
193.04,-0.53
193.04,-0.54
193.04,-0.46
193.04,-0.34
193.05,-0.2
193.05,-0.075
193.05,0.09
193.06,0.335
193.06,0.61
193.06,0.835
193.06,0.97
193.07,1.035
193.07,0.98
193.07,0.755
193.07,0.4
193.08,0.04
193.08,-0.26
193.08,-0.415
193.09,-0.45
193.09,-0.41
193.09,-0.355
193.09,-0.32
193.1,-0.33
193.1,-0.35
193.1,-0.36
193.11,-0.35
193.11,-0.345
193.11,-0.35
193.11,-0.345
193.12,-0.35
193.12,-0.375
193.12,-0.36
193.12,-0.37
193.13,-0.355
193.13,-0.35
193.13,-0.365
193.14,-0.37
193.14,-0.375
193.14,-0.36
193.14,-0.36
193.15,-0.355
193.15,-0.36
193.15,-0.37
193.16,-0.36
193.16,-0.35
193.16,-0.355
193.16,-0.35
193.17,-0.36
193.17,-0.375
193.17,-0.37
193.18,-0.355
193.18,-0.345
193.18,-0.35
193.18,-0.36
193.19,-0.37
193.19,-0.37
193.19,-0.37
193.19,-0.355
193.2,-0.35
193.2,-0.365
193.2,-0.375
193.21,-0.36
193.21,-0.37
193.21,-0.355
193.21,-0.345
193.22,-0.355
193.22,-0.36
193.22,-0.37
193.22,-0.35
193.23,-0.345
193.23,-0.345
193.23,-0.355
193.24,-0.365
193.24,-0.36
193.24,-0.35
193.24,-0.345
193.25,-0.355
193.25,-0.35
193.25,-0.365
193.26,-0.37
193.26,-0.355
193.26,-0.355
193.26,-0.36
193.27,-0.36
193.27,-0.365
193.27,-0.355
193.28,-0.355
193.28,-0.35
193.28,-0.35
193.28,-0.36
193.29,-0.38
193.29,-0.375
193.29,-0.365
193.29,-0.35
193.3,-0.355
193.3,-0.36
193.3,-0.36
193.31,-0.37
193.31,-0.365
193.31,-0.36
193.31,-0.355
193.32,-0.365
193.32,-0.375
193.32,-0.39
193.32,-0.375
193.33,-0.365
193.33,-0.375
193.33,-0.37
193.34,-0.375
193.34,-0.38
193.34,-0.38
193.34,-0.365
193.35,-0.36
193.35,-0.36
193.35,-0.35
193.36,-0.35
193.36,-0.335
193.36,-0.32
193.36,-0.32
193.37,-0.305
193.37,-0.295
193.37,-0.305
193.38,-0.28
193.38,-0.26
193.38,-0.26
193.38,-0.255
193.39,-0.26
193.39,-0.27
193.39,-0.25
193.39,-0.245
193.4,-0.25
193.4,-0.26
193.4,-0.27
193.41,-0.26
193.41,-0.255
193.41,-0.25
193.41,-0.26
193.42,-0.265
193.42,-0.27
193.42,-0.275
193.43,-0.26
193.43,-0.25
193.43,-0.255
193.43,-0.27
193.44,-0.27
193.44,-0.27
193.44,-0.26
193.44,-0.255
193.45,-0.255
193.45,-0.265
193.45,-0.27
193.46,-0.27
193.46,-0.275
193.46,-0.265
193.46,-0.26
193.47,-0.265
193.47,-0.28
193.47,-0.28
193.47,-0.27
193.48,-0.265
193.48,-0.275
193.48,-0.275
193.49,-0.285
193.49,-0.285
193.49,-0.28
193.49,-0.275
193.5,-0.28
193.5,-0.29
193.5,-0.295
193.51,-0.295
193.51,-0.28
193.51,-0.28
193.51,-0.29
193.52,-0.29
193.52,-0.3
193.52,-0.295
193.53,-0.285
193.53,-0.275
193.53,-0.28
193.53,-0.285
193.54,-0.305
193.54,-0.29
193.54,-0.3
193.54,-0.3
193.55,-0.295
193.55,-0.305
193.55,-0.31
193.56,-0.31
193.56,-0.3
193.56,-0.295
193.56,-0.29
193.57,-0.31
193.57,-0.31
193.57,-0.32
193.57,-0.305
193.58,-0.3
193.58,-0.295
193.58,-0.3
193.59,-0.31
193.59,-0.305
193.59,-0.3
193.59,-0.285
193.6,-0.29
193.6,-0.305
193.6,-0.31
193.61,-0.315
193.61,-0.305
193.61,-0.3
193.61,-0.29
193.62,-0.29
193.62,-0.3
193.62,-0.305
193.62,-0.31
193.63,-0.285
193.63,-0.285
193.63,-0.29
193.64,-0.305
193.64,-0.305
193.64,-0.295
193.64,-0.285
193.65,-0.285
193.65,-0.29
193.65,-0.305
193.66,-0.3
193.66,-0.295
193.66,-0.28
193.66,-0.28
193.67,-0.285
193.67,-0.28
193.67,-0.27
193.68,-0.25
193.68,-0.23
193.68,-0.225
193.68,-0.225
193.69,-0.24
193.69,-0.235
193.69,-0.21
193.69,-0.185
193.7,-0.185
193.7,-0.19
193.7,-0.185
193.71,-0.195
193.71,-0.18
193.71,-0.175
193.71,-0.185
193.72,-0.2
193.72,-0.215
193.72,-0.215
193.72,-0.205
193.73,-0.195
193.73,-0.205
193.73,-0.22
193.74,-0.215
193.74,-0.2
193.74,-0.175
193.74,-0.18
193.75,-0.2
193.75,-0.23
193.75,-0.265
193.76,-0.265
193.76,-0.275
193.76,-0.28
193.76,-0.29
193.77,-0.315
193.77,-0.32
193.77,-0.325
193.78,-0.31
193.78,-0.305
193.78,-0.31
193.78,-0.31
193.79,-0.325
193.79,-0.325
193.79,-0.315
193.79,-0.31
193.8,-0.315
193.8,-0.32
193.8,-0.32
193.81,-0.33
193.81,-0.335
193.81,-0.315
193.81,-0.32
193.82,-0.325
193.82,-0.33
193.82,-0.33
193.82,-0.33
193.83,-0.32
193.83,-0.33
193.83,-0.335
193.84,-0.35
193.84,-0.37
193.84,-0.405
193.84,-0.435
193.85,-0.44
193.85,-0.5
193.85,-0.54
193.86,-0.54
193.86,-0.46
193.86,-0.315
193.86,-0.16
193.87,0
193.87,0.24
193.87,0.52
193.88,0.755
193.88,0.87
193.88,0.82
193.88,0.585
193.89,0.205
193.89,-0.18
193.89,-0.415
193.89,-0.45
193.9,-0.42
193.9,-0.385
193.9,-0.37
193.91,-0.365
193.91,-0.355
193.91,-0.335
193.91,-0.345
193.92,-0.34
193.92,-0.36
193.92,-0.36
193.93,-0.35
193.93,-0.355
193.93,-0.36
193.93,-0.365
193.94,-0.37
193.94,-0.37
193.94,-0.365
193.94,-0.355
193.95,-0.36
193.95,-0.365
193.95,-0.375
193.96,-0.375
193.96,-0.365
193.96,-0.345
193.96,-0.37
193.97,-0.375
193.97,-0.37
193.97,-0.375
193.97,-0.365
193.98,-0.35
193.98,-0.345
193.98,-0.345
193.99,-0.35
193.99,-0.36
193.99,-0.36
193.99,-0.355
194,-0.36
194,-0.355
194,-0.365
194.01,-0.375
194.01,-0.36
194.01,-0.35
194.01,-0.365
194.02,-0.35
194.02,-0.36
194.02,-0.385
194.03,-0.365
194.03,-0.35
194.03,-0.345
194.03,-0.36
194.04,-0.385
194.04,-0.38
194.04,-0.37
194.04,-0.36
194.05,-0.355
194.05,-0.35
194.05,-0.36
194.06,-0.355
194.06,-0.34
194.06,-0.33
194.06,-0.34
194.07,-0.345
194.07,-0.35
194.07,-0.36
194.07,-0.355
194.08,-0.355
194.08,-0.35
194.08,-0.365
194.09,-0.37
194.09,-0.38
194.09,-0.36
194.09,-0.355
194.1,-0.36
194.1,-0.375
194.1,-0.37
194.11,-0.375
194.11,-0.365
194.11,-0.37
194.11,-0.37
194.12,-0.375
194.12,-0.39
194.12,-0.385
194.12,-0.38
194.13,-0.36
194.13,-0.365
194.13,-0.37
194.14,-0.375
194.14,-0.39
194.14,-0.37
194.14,-0.355
194.15,-0.37
194.15,-0.375
194.15,-0.37
194.16,-0.375
194.16,-0.355
194.16,-0.34
194.16,-0.34
194.17,-0.335
194.17,-0.33
194.17,-0.32
194.18,-0.31
194.18,-0.305
194.18,-0.31
194.18,-0.305
194.19,-0.31
194.19,-0.305
194.19,-0.28
194.19,-0.27
194.2,-0.28
194.2,-0.27
194.2,-0.275
194.21,-0.285
194.21,-0.29
194.21,-0.285
194.21,-0.3
194.22,-0.285
194.22,-0.295
194.22,-0.305
194.22,-0.3
194.23,-0.3
194.23,-0.3
194.23,-0.305
194.24,-0.32
194.24,-0.315
194.24,-0.3
194.24,-0.275
194.25,-0.295
194.25,-0.305
194.25,-0.315
194.26,-0.315
194.26,-0.305
194.26,-0.305
194.26,-0.315
194.27,-0.315
194.27,-0.32
194.27,-0.315
194.28,-0.325
194.28,-0.31
194.28,-0.325
194.28,-0.325
194.29,-0.325
194.29,-0.325
194.29,-0.325
194.29,-0.315
194.3,-0.33
194.3,-0.345
194.3,-0.35
194.31,-0.355
194.31,-0.345
194.31,-0.32
194.31,-0.335
194.32,-0.335
194.32,-0.335
194.32,-0.345
194.32,-0.335
194.33,-0.33
194.33,-0.335
194.33,-0.34
194.34,-0.355
194.34,-0.355
194.34,-0.355
194.34,-0.33
194.35,-0.335
194.35,-0.345
194.35,-0.35
194.36,-0.345
194.36,-0.35
194.36,-0.34
194.36,-0.35
194.37,-0.36
194.37,-0.36
194.37,-0.36
194.38,-0.345
194.38,-0.34
194.38,-0.34
194.38,-0.34
194.39,-0.345
194.39,-0.35
194.39,-0.345
194.39,-0.335
194.4,-0.34
194.4,-0.355
194.4,-0.36
194.41,-0.36
194.41,-0.335
194.41,-0.34
194.41,-0.335
194.42,-0.34
194.42,-0.35
194.42,-0.36
194.43,-0.35
194.43,-0.34
194.43,-0.34
194.43,-0.35
194.44,-0.335
194.44,-0.32
194.44,-0.305
194.44,-0.29
194.45,-0.295
194.45,-0.295
194.45,-0.29
194.46,-0.285
194.46,-0.27
194.46,-0.265
194.46,-0.25
194.47,-0.245
194.47,-0.25
194.47,-0.245
194.47,-0.235
194.48,-0.22
194.48,-0.235
194.48,-0.235
194.49,-0.245
194.49,-0.245
194.49,-0.255
194.49,-0.245
194.5,-0.26
194.5,-0.265
194.5,-0.275
194.51,-0.295
194.51,-0.285
194.51,-0.255
194.51,-0.245
194.52,-0.25
194.52,-0.27
194.52,-0.3
194.53,-0.305
194.53,-0.315
194.53,-0.34
194.53,-0.35
194.54,-0.36
194.54,-0.37
194.54,-0.36
194.54,-0.355
194.55,-0.36
194.55,-0.37
194.55,-0.385
194.56,-0.38
194.56,-0.365
194.56,-0.365
194.56,-0.37
194.57,-0.375
194.57,-0.385
194.57,-0.385
194.57,-0.39
194.58,-0.39
194.58,-0.37
194.58,-0.37
194.59,-0.395
194.59,-0.4
194.59,-0.38
194.59,-0.38
194.6,-0.375
194.6,-0.39
194.6,-0.4
194.61,-0.41
194.61,-0.42
194.61,-0.44
194.61,-0.47
194.62,-0.5
194.62,-0.535
194.62,-0.575
194.62,-0.58
194.63,-0.5
194.63,-0.39
194.63,-0.26
194.64,-0.105
194.64,0.115
194.64,0.405
194.64,0.665
194.65,0.835
194.65,0.855
194.65,0.675
194.66,0.29
194.66,-0.105
194.66,-0.375
194.66,-0.485
194.67,-0.51
194.67,-0.48
194.67,-0.45
194.68,-0.42
194.68,-0.415
194.68,-0.415
194.68,-0.415
194.69,-0.42
194.69,-0.43
194.69,-0.41
194.69,-0.39
194.7,-0.4
194.7,-0.41
194.7,-0.405
194.71,-0.415
194.71,-0.405
194.71,-0.405
194.71,-0.405
194.72,-0.41
194.72,-0.42
194.72,-0.42
194.72,-0.42
194.73,-0.4
194.73,-0.405
194.73,-0.42
194.74,-0.415
194.74,-0.415
194.74,-0.415
194.74,-0.4
194.75,-0.41
194.75,-0.42
194.75,-0.425
194.76,-0.435
194.76,-0.41
194.76,-0.4
194.76,-0.39
194.77,-0.41
194.77,-0.42
194.77,-0.425
194.78,-0.41
194.78,-0.4
194.78,-0.405
194.78,-0.425
194.79,-0.415
194.79,-0.42
194.79,-0.42
194.79,-0.415
194.8,-0.405
194.8,-0.415
194.8,-0.41
194.81,-0.41
194.81,-0.405
194.81,-0.405
194.81,-0.41
194.82,-0.42
194.82,-0.425
194.82,-0.415
194.82,-0.405
194.83,-0.395
194.83,-0.39
194.83,-0.405
194.84,-0.415
194.84,-0.415
194.84,-0.395
194.84,-0.39
194.85,-0.385
194.85,-0.4
194.85,-0.415
194.86,-0.42
194.86,-0.425
194.86,-0.405
194.86,-0.415
194.87,-0.435
194.87,-0.44
194.87,-0.435
194.88,-0.435
194.88,-0.43
194.88,-0.43
194.88,-0.47
194.89,-0.47
194.89,-0.47
194.89,-0.455
194.89,-0.445
194.9,-0.46
194.9,-0.46
194.9,-0.465
194.91,-0.48
194.91,-0.47
194.91,-0.46
194.91,-0.45
194.92,-0.46
194.92,-0.465
194.92,-0.44
194.93,-0.42
194.93,-0.41
194.93,-0.395
194.93,-0.385
194.94,-0.38
194.94,-0.375
194.94,-0.365
194.94,-0.34
194.95,-0.355
194.95,-0.345
194.95,-0.345
194.96,-0.33
194.96,-0.335
194.96,-0.315
194.96,-0.315
194.97,-0.32
194.97,-0.315
194.97,-0.32
194.97,-0.31
194.98,-0.305
194.98,-0.31
194.98,-0.315
194.99,-0.31
194.99,-0.325
194.99,-0.315
194.99,-0.3
195,-0.3
195,-0.305
