5400 2
0.000000 4.340000
0.003000 4.340000
0.006000 4.340000
0.008000 4.340000
0.011000 4.340000
0.014000 4.340000
0.017000 4.340000
0.019000 4.320000
0.022000 4.310000
0.025000 4.280000
0.028000 4.290000
0.031000 4.300000
0.033000 4.305000
0.036000 4.310000
0.039000 4.320000
0.042000 4.305000
0.044000 4.285000
0.047000 4.280000
0.050000 4.300000
0.053000 4.310000
0.056000 4.295000
0.058000 4.270000
0.061000 4.260000
0.064000 4.275000
0.067000 4.280000
0.069000 4.275000
0.072000 4.270000
0.075000 4.255000
0.078000 4.245000
0.081000 4.265000
0.083000 4.270000
0.086000 4.265000
0.089000 4.265000
0.092000 4.270000
0.094000 4.255000
0.097000 4.255000
0.100000 4.265000
0.103000 4.270000
0.106000 4.275000
0.108000 4.275000
0.111000 4.260000
0.114000 4.270000
0.117000 4.280000
0.119000 4.290000
0.122000 4.280000
0.125000 4.265000
0.128000 4.260000
0.131000 4.265000
0.133000 4.265000
0.136000 4.265000
0.139000 4.265000
0.142000 4.250000
0.144000 4.250000
0.147000 4.265000
0.150000 4.275000
0.153000 4.290000
0.156000 4.305000
0.158000 4.295000
0.161000 4.285000
0.164000 4.265000
0.167000 4.215000
0.169000 4.170000
0.172000 4.075000
0.175000 3.980000
0.178000 3.860000
0.181000 3.685000
0.183000 3.450000
0.186000 3.200000
0.189000 3.025000
0.192000 2.950000
0.194000 2.950000
0.197000 2.995000
0.200000 3.040000
0.203000 3.065000
0.206000 3.090000
0.208000 3.125000
0.211000 3.165000
0.214000 3.190000
0.217000 3.230000
0.219000 3.260000
0.222000 3.285000
0.225000 3.310000
0.228000 3.355000
0.231000 3.410000
0.233000 3.455000
0.236000 3.495000
0.239000 3.520000
0.242000 3.535000
0.244000 3.590000
0.247000 3.675000
0.250000 3.760000
0.253000 3.850000
0.256000 3.925000
0.258000 3.980000
0.261000 4.025000
0.264000 4.095000
0.267000 4.165000
0.269000 4.235000
0.272000 4.280000
0.275000 4.300000
0.278000 4.350000
0.281000 4.395000
0.283000 4.450000
0.286000 4.465000
0.289000 4.480000
0.292000 4.475000
0.294000 4.480000
0.297000 4.505000
0.300000 4.525000
0.303000 4.535000
0.306000 4.540000
0.308000 4.525000
0.311000 4.540000
0.314000 4.540000
0.317000 4.555000
0.319000 4.565000
0.322000 4.565000
0.325000 4.575000
0.328000 4.575000
0.331000 4.580000
0.333000 4.605000
0.336000 4.610000
0.339000 4.605000
0.342000 4.590000
0.344000 4.595000
0.347000 4.610000
0.350000 4.635000
0.353000 4.635000
0.356000 4.645000
0.358000 4.635000
0.361000 4.635000
0.364000 4.645000
0.367000 4.655000
0.369000 4.645000
0.372000 4.645000
0.375000 4.635000
0.378000 4.645000
0.381000 4.655000
0.383000 4.665000
0.386000 4.670000
0.389000 4.670000
0.392000 4.650000
0.394000 4.650000
0.397000 4.665000
0.400000 4.685000
0.403000 4.695000
0.406000 4.690000
0.408000 4.685000
0.411000 4.665000
0.414000 4.685000
0.417000 4.690000
0.419000 4.695000
0.422000 4.690000
0.425000 4.680000
0.428000 4.685000
0.431000 4.690000
0.433000 4.705000
0.436000 4.705000
0.439000 4.705000
0.442000 4.685000
0.444000 4.690000
0.447000 4.700000
0.450000 4.710000
0.453000 4.715000
0.456000 4.715000
0.458000 4.700000
0.461000 4.695000
0.464000 4.705000
0.467000 4.720000
0.469000 4.725000
0.472000 4.725000
0.475000 4.705000
0.478000 4.705000
0.481000 4.695000
0.483000 4.700000
0.486000 4.695000
0.489000 4.685000
0.492000 4.680000
0.494000 4.670000
0.497000 4.665000
0.500000 4.680000
0.503000 4.675000
0.506000 4.685000
0.508000 4.665000
0.511000 4.645000
0.514000 4.645000
0.517000 4.650000
0.519000 4.640000
0.522000 4.625000
0.525000 4.620000
0.528000 4.610000
0.531000 4.630000
0.533000 4.620000
0.536000 4.605000
0.539000 4.595000
0.542000 4.570000
0.544000 4.560000
0.547000 4.550000
0.550000 4.560000
0.553000 4.555000
0.556000 4.555000
0.558000 4.555000
0.561000 4.545000
0.564000 4.550000
0.567000 4.560000
0.569000 4.550000
0.572000 4.540000
0.575000 4.540000
0.578000 4.540000
0.581000 4.540000
0.583000 4.560000
0.586000 4.565000
0.589000 4.555000
0.592000 4.545000
0.594000 4.540000
0.597000 4.555000
0.600000 4.575000
0.603000 4.575000
0.606000 4.575000
0.608000 4.555000
0.611000 4.555000
0.614000 4.560000
0.617000 4.575000
0.619000 4.580000
0.622000 4.580000
0.625000 4.580000
0.628000 4.575000
0.631000 4.585000
0.633000 4.595000
0.636000 4.605000
0.639000 4.610000
0.642000 4.600000
0.644000 4.610000
0.647000 4.620000
0.650000 4.625000
0.653000 4.640000
0.656000 4.625000
0.658000 4.620000
0.661000 4.625000
0.664000 4.640000
0.667000 4.655000
0.669000 4.660000
0.672000 4.670000
0.675000 4.655000
0.678000 4.650000
0.681000 4.670000
0.683000 4.690000
0.686000 4.695000
0.689000 4.680000
0.692000 4.680000
0.694000 4.680000
0.697000 4.685000
0.700000 4.705000
0.703000 4.705000
0.706000 4.700000
0.708000 4.695000
0.711000 4.690000
0.714000 4.710000
0.717000 4.705000
0.719000 4.710000
0.722000 4.705000
0.725000 4.690000
0.728000 4.695000
0.731000 4.710000
0.733000 4.715000
0.736000 4.720000
0.739000 4.710000
0.742000 4.695000
0.744000 4.715000
0.747000 4.710000
0.750000 4.710000
0.753000 4.710000
0.756000 4.715000
0.758000 4.710000
0.761000 4.700000
0.764000 4.705000
0.767000 4.715000
0.769000 4.720000
0.772000 4.720000
0.775000 4.705000
0.778000 4.705000
0.781000 4.700000
0.783000 4.715000
0.786000 4.710000
0.789000 4.720000
0.792000 4.705000
0.794000 4.700000
0.797000 4.710000
0.800000 4.720000
0.803000 4.720000
0.806000 4.720000
0.808000 4.705000
0.811000 4.705000
0.814000 4.715000
0.817000 4.730000
0.819000 4.740000
0.822000 4.725000
0.825000 4.715000
0.828000 4.725000
0.831000 4.725000
0.833000 4.740000
0.836000 4.735000
0.839000 4.720000
0.842000 4.725000
0.844000 4.720000
0.847000 4.745000
0.850000 4.745000
0.853000 4.740000
0.856000 4.735000
0.858000 4.725000
0.861000 4.715000
0.864000 4.730000
0.867000 4.735000
0.869000 4.740000
0.872000 4.740000
0.875000 4.735000
0.878000 4.735000
0.881000 4.735000
0.883000 4.745000
0.886000 4.750000
0.889000 4.740000
0.892000 4.725000
0.894000 4.725000
0.897000 4.750000
0.900000 4.760000
0.903000 4.755000
0.906000 4.755000
0.908000 4.750000
0.911000 4.740000
0.914000 4.760000
0.917000 4.770000
0.919000 4.775000
0.922000 4.770000
0.925000 4.775000
0.928000 4.765000
0.931000 4.770000
0.933000 4.785000
0.936000 4.795000
0.939000 4.800000
0.942000 4.770000
0.944000 4.770000
0.947000 4.765000
0.950000 4.775000
0.953000 4.795000
0.956000 4.790000
0.958000 4.800000
0.961000 4.815000
0.964000 4.805000
0.967000 4.830000
0.969000 4.845000
0.972000 4.860000
0.975000 4.865000
0.978000 4.865000
0.981000 4.880000
0.983000 4.885000
0.986000 4.885000
0.989000 4.870000
0.992000 4.835000
0.994000 4.820000
0.997000 4.835000
1.000000 4.850000
1.003000 4.840000
1.006000 4.830000
1.008000 4.830000
1.011000 4.815000
1.014000 4.820000
1.017000 4.835000
1.019000 4.840000
1.022000 4.850000
1.025000 4.835000
1.028000 4.840000
1.031000 4.845000
1.033000 4.850000
1.036000 4.845000
1.039000 4.835000
1.042000 4.825000
1.044000 4.815000
1.047000 4.820000
1.050000 4.810000
1.053000 4.815000
1.056000 4.805000
1.058000 4.795000
1.061000 4.790000
1.064000 4.800000
1.067000 4.815000
1.069000 4.820000
1.072000 4.815000
1.075000 4.810000
1.078000 4.795000
1.081000 4.800000
1.083000 4.830000
1.086000 4.825000
1.089000 4.830000
1.092000 4.825000
1.094000 4.825000
1.097000 4.830000
1.100000 4.840000
1.103000 4.835000
1.106000 4.825000
1.108000 4.820000
1.111000 4.815000
1.114000 4.835000
1.117000 4.840000
1.119000 4.840000
1.122000 4.825000
1.125000 4.815000
1.128000 4.820000
1.131000 4.825000
1.133000 4.845000
1.136000 4.845000
1.139000 4.855000
1.142000 4.840000
1.144000 4.850000
1.147000 4.850000
1.150000 4.830000
1.153000 4.760000
1.156000 4.685000
1.158000 4.595000
1.161000 4.495000
1.164000 4.370000
1.167000 4.180000
1.169000 3.925000
1.172000 3.660000
1.175000 3.460000
1.178000 3.415000
1.181000 3.455000
1.183000 3.515000
1.186000 3.550000
1.189000 3.590000
1.192000 3.610000
1.194000 3.660000
1.197000 3.710000
1.200000 3.745000
1.203000 3.765000
1.206000 3.790000
1.208000 3.825000
1.211000 3.860000
1.214000 3.920000
1.217000 3.975000
1.219000 4.025000
1.222000 4.055000
1.225000 4.095000
1.228000 4.150000
1.231000 4.245000
1.233000 4.365000
1.236000 4.435000
1.239000 4.505000
1.242000 4.560000
1.244000 4.645000
1.247000 4.710000
1.250000 4.790000
1.253000 4.855000
1.256000 4.905000
1.258000 4.940000
1.261000 4.980000
1.264000 5.040000
1.267000 5.075000
1.269000 5.095000
1.272000 5.115000
1.275000 5.110000
1.278000 5.125000
1.281000 5.125000
1.283000 5.140000
1.286000 5.160000
1.289000 5.165000
1.292000 5.160000
1.294000 5.165000
1.297000 5.185000
1.300000 5.200000
1.303000 5.205000
1.306000 5.215000
1.308000 5.215000
1.311000 5.205000
1.314000 5.230000
1.317000 5.240000
1.319000 5.240000
1.322000 5.250000
1.325000 5.235000
1.328000 5.240000
1.331000 5.250000
1.333000 5.265000
1.336000 5.280000
1.339000 5.275000
1.342000 5.260000
1.344000 5.265000
1.347000 5.280000
1.350000 5.290000
1.353000 5.295000
1.356000 5.280000
1.358000 5.280000
1.361000 5.285000
1.364000 5.295000
1.367000 5.315000
1.369000 5.315000
1.372000 5.310000
1.375000 5.315000
1.378000 5.315000
1.381000 5.320000
1.383000 5.335000
1.386000 5.340000
1.389000 5.345000
1.392000 5.320000
1.394000 5.325000
1.397000 5.330000
1.400000 5.335000
1.403000 5.350000
1.406000 5.340000
1.408000 5.325000
1.411000 5.340000
1.414000 5.340000
1.417000 5.350000
1.419000 5.350000
1.422000 5.340000
1.425000 5.325000
1.428000 5.335000
1.431000 5.345000
1.433000 5.345000
1.436000 5.345000
1.439000 5.340000
1.442000 5.330000
1.444000 5.330000
1.447000 5.330000
1.450000 5.345000
1.453000 5.335000
1.456000 5.325000
1.458000 5.310000
1.461000 5.310000
1.464000 5.310000
1.467000 5.310000
1.469000 5.315000
1.472000 5.300000
1.475000 5.290000
1.478000 5.280000
1.481000 5.290000
1.483000 5.285000
1.486000 5.275000
1.489000 5.265000
1.492000 5.235000
1.494000 5.235000
1.497000 5.235000
1.500000 5.230000
1.503000 5.220000
1.506000 5.205000
1.508000 5.185000
1.511000 5.180000
1.514000 5.170000
1.517000 5.150000
1.519000 5.155000
1.522000 5.150000
1.525000 5.120000
1.528000 5.115000
1.531000 5.120000
1.533000 5.120000
1.536000 5.110000
1.539000 5.105000
1.542000 5.095000
1.544000 5.085000
1.547000 5.100000
1.550000 5.110000
1.553000 5.100000
1.556000 5.105000
1.558000 5.105000
1.561000 5.085000
1.564000 5.095000
1.567000 5.110000
1.569000 5.105000
1.572000 5.110000
1.575000 5.095000
1.578000 5.090000
1.581000 5.105000
1.583000 5.125000
1.586000 5.115000
1.589000 5.100000
1.592000 5.105000
1.594000 5.110000
1.597000 5.115000
1.600000 5.125000
1.603000 5.115000
1.606000 5.130000
1.608000 5.120000
1.611000 5.115000
1.614000 5.125000
1.617000 5.145000
1.619000 5.160000
1.622000 5.155000
1.625000 5.135000
1.628000 5.140000
1.631000 5.135000
1.633000 5.155000
1.636000 5.155000
1.639000 5.155000
1.642000 5.155000
1.644000 5.155000
1.647000 5.180000
1.650000 5.175000
1.653000 5.185000
1.656000 5.175000
1.658000 5.170000
1.661000 5.165000
1.664000 5.190000
1.667000 5.200000
1.669000 5.200000
1.672000 5.200000
1.675000 5.180000
1.678000 5.185000
1.681000 5.195000
1.683000 5.195000
1.686000 5.200000
1.689000 5.190000
1.692000 5.195000
1.694000 5.180000
1.697000 5.190000
1.700000 5.200000
1.703000 5.195000
1.706000 5.195000
1.708000 5.190000
1.711000 5.175000
1.714000 5.190000
1.717000 5.200000
1.719000 5.205000
1.722000 5.205000
1.725000 5.185000
1.728000 5.180000
1.731000 5.200000
1.733000 5.195000
1.736000 5.185000
1.739000 5.190000
1.742000 5.175000
1.744000 5.170000
1.747000 5.185000
1.750000 5.180000
1.753000 5.185000
1.756000 5.175000
1.758000 5.165000
1.761000 5.165000
1.764000 5.170000
1.767000 5.195000
1.769000 5.190000
1.772000 5.190000
1.775000 5.175000
1.778000 5.170000
1.781000 5.185000
1.783000 5.185000
1.786000 5.185000
1.789000 5.195000
1.792000 5.180000
1.794000 5.175000
1.797000 5.195000
1.800000 5.200000
1.803000 5.200000
1.806000 5.185000
1.808000 5.180000
1.811000 5.165000
1.814000 5.185000
1.817000 5.195000
1.819000 5.190000
1.822000 5.185000
1.825000 5.175000
1.828000 5.185000
1.831000 5.190000
1.833000 5.210000
1.836000 5.200000
1.839000 5.195000
1.842000 5.190000
1.844000 5.185000
1.847000 5.190000
1.850000 5.205000
1.853000 5.205000
1.856000 5.200000
1.858000 5.190000
1.861000 5.175000
1.864000 5.190000
1.867000 5.210000
1.869000 5.200000
1.872000 5.210000
1.875000 5.195000
1.878000 5.190000
1.881000 5.205000
1.883000 5.215000
1.886000 5.205000
1.889000 5.205000
1.892000 5.210000
1.894000 5.195000
1.897000 5.205000
1.900000 5.210000
1.903000 5.215000
1.906000 5.205000
1.908000 5.205000
1.911000 5.200000
1.914000 5.200000
1.917000 5.210000
1.919000 5.220000
1.922000 5.220000
1.925000 5.210000
1.928000 5.225000
1.931000 5.240000
1.933000 5.250000
1.936000 5.260000
1.939000 5.270000
1.942000 5.270000
1.944000 5.280000
1.947000 5.305000
1.950000 5.310000
1.953000 5.310000
1.956000 5.320000
1.958000 5.300000
1.961000 5.290000
1.964000 5.270000
1.967000 5.275000
1.969000 5.275000
1.972000 5.265000
1.975000 5.250000
1.978000 5.240000
1.981000 5.250000
1.983000 5.255000
1.986000 5.260000
1.989000 5.265000
1.992000 5.275000
1.994000 5.270000
1.997000 5.280000
2.000000 5.270000
2.003000 5.260000
2.006000 5.250000
2.008000 5.240000
2.011000 5.230000
2.014000 5.225000
2.017000 5.230000
2.019000 5.215000
2.022000 5.220000
2.025000 5.215000
2.028000 5.205000
2.031000 5.220000
2.033000 5.230000
2.036000 5.230000
2.039000 5.230000
2.042000 5.225000
2.044000 5.220000
2.047000 5.225000
2.050000 5.235000
2.053000 5.230000
2.056000 5.230000
2.058000 5.210000
2.061000 5.210000
2.064000 5.220000
2.067000 5.225000
2.069000 5.230000
2.072000 5.220000
2.075000 5.220000
2.078000 5.210000
2.081000 5.230000
2.083000 5.235000
2.086000 5.230000
2.089000 5.225000
2.092000 5.205000
2.094000 5.205000
2.097000 5.220000
2.100000 5.235000
2.103000 5.230000
2.106000 5.220000
2.108000 5.225000
2.111000 5.230000
2.114000 5.240000
2.117000 5.215000
2.119000 5.140000
2.122000 5.060000
2.125000 4.945000
2.128000 4.825000
2.131000 4.695000
2.133000 4.515000
2.136000 4.265000
2.139000 3.980000
2.142000 3.765000
2.144000 3.680000
2.147000 3.715000
2.150000 3.780000
2.153000 3.830000
2.156000 3.880000
2.158000 3.920000
2.161000 3.965000
2.164000 4.015000
2.167000 4.045000
2.169000 4.065000
2.172000 4.100000
2.175000 4.130000
2.178000 4.180000
2.181000 4.225000
2.183000 4.280000
2.186000 4.350000
2.189000 4.400000
2.192000 4.435000
2.194000 4.500000
2.197000 4.585000
2.200000 4.690000
2.203000 4.770000
2.206000 4.845000
2.208000 4.910000
2.211000 4.965000
2.214000 5.055000
2.217000 5.120000
2.219000 5.175000
2.222000 5.230000
2.225000 5.265000
2.228000 5.315000
2.231000 5.360000
2.233000 5.400000
2.236000 5.410000
2.239000 5.425000
2.242000 5.430000
2.244000 5.435000
2.247000 5.445000
2.250000 5.465000
2.253000 5.460000
2.256000 5.475000
2.258000 5.470000
2.261000 5.465000
2.264000 5.480000
2.267000 5.505000
2.269000 5.500000
2.272000 5.515000
2.275000 5.505000
2.278000 5.515000
2.281000 5.525000
2.283000 5.535000
2.286000 5.525000
2.289000 5.520000
2.292000 5.530000
2.294000 5.520000
2.297000 5.535000
2.300000 5.530000
2.303000 5.550000
2.306000 5.540000
2.308000 5.540000
2.311000 5.530000
2.314000 5.550000
2.317000 5.555000
2.319000 5.560000
2.322000 5.555000
2.325000 5.555000
2.328000 5.560000
2.331000 5.560000
2.333000 5.575000
2.336000 5.575000
2.339000 5.580000
2.342000 5.555000
2.344000 5.565000
2.347000 5.565000
2.350000 5.575000
2.353000 5.580000
2.356000 5.580000
2.358000 5.560000
2.361000 5.550000
2.364000 5.565000
2.367000 5.580000
2.369000 5.570000
2.372000 5.565000
2.375000 5.565000
2.378000 5.555000
2.381000 5.560000
2.383000 5.580000
2.386000 5.585000
2.389000 5.565000
2.392000 5.560000
2.394000 5.560000
2.397000 5.570000
2.400000 5.570000
2.403000 5.560000
2.406000 5.555000
2.408000 5.540000
2.411000 5.530000
2.414000 5.535000
2.417000 5.535000
2.419000 5.530000
2.422000 5.515000
2.425000 5.490000
2.428000 5.490000
2.431000 5.515000
2.433000 5.515000
2.436000 5.515000
2.439000 5.500000
2.442000 5.490000
2.444000 5.470000
2.447000 5.480000
2.450000 5.465000
2.453000 5.465000
2.456000 5.455000
2.458000 5.435000
2.461000 5.435000
2.464000 5.420000
2.467000 5.435000
2.469000 5.420000
2.472000 5.405000
2.475000 5.380000
2.478000 5.375000
2.481000 5.370000
2.483000 5.370000
2.486000 5.350000
2.489000 5.355000
2.492000 5.330000
2.494000 5.340000
2.497000 5.335000
2.500000 5.350000
2.503000 5.335000
2.506000 5.330000
2.508000 5.310000
2.511000 5.305000
2.514000 5.320000
2.517000 5.325000
2.519000 5.330000
2.522000 5.325000
2.525000 5.305000
2.528000 5.305000
2.531000 5.315000
2.533000 5.330000
2.536000 5.315000
2.539000 5.320000
2.542000 5.310000
2.544000 5.315000
2.547000 5.320000
2.550000 5.335000
2.553000 5.335000
2.556000 5.345000
2.558000 5.325000
2.561000 5.325000
2.564000 5.330000
2.567000 5.345000
2.569000 5.340000
2.572000 5.345000
2.575000 5.330000
2.578000 5.325000
2.581000 5.335000
2.583000 5.350000
2.586000 5.350000
2.589000 5.340000
2.592000 5.335000
2.594000 5.325000
2.597000 5.345000
2.600000 5.360000
2.603000 5.355000
2.606000 5.350000
2.608000 5.345000
2.611000 5.350000
2.614000 5.355000
2.617000 5.365000
2.619000 5.365000
2.622000 5.360000
2.625000 5.355000
2.628000 5.355000
2.631000 5.350000
2.633000 5.370000
2.636000 5.365000
2.639000 5.360000
2.642000 5.350000
2.644000 5.355000
2.647000 5.355000
2.650000 5.365000
2.653000 5.355000
2.656000 5.360000
2.658000 5.345000
2.661000 5.345000
2.664000 5.355000
2.667000 5.360000
2.669000 5.360000
2.672000 5.355000
2.675000 5.345000
2.678000 5.340000
2.681000 5.335000
2.683000 5.365000
2.686000 5.355000
2.689000 5.340000
2.692000 5.330000
2.694000 5.315000
2.697000 5.325000
2.700000 5.340000
2.703000 5.330000
2.706000 5.330000
2.708000 5.310000
2.711000 5.320000
2.714000 5.315000
2.717000 5.330000
2.719000 5.335000
2.722000 5.325000
2.725000 5.320000
2.728000 5.325000
2.731000 5.330000
2.733000 5.330000
2.736000 5.325000
2.739000 5.315000
2.742000 5.330000
2.744000 5.320000
2.747000 5.325000
2.750000 5.335000
2.753000 5.325000
2.756000 5.330000
2.758000 5.320000
2.761000 5.320000
2.764000 5.320000
2.767000 5.330000
2.769000 5.340000
2.772000 5.320000
2.775000 5.310000
2.778000 5.325000
2.781000 5.335000
2.783000 5.320000
2.786000 5.325000
2.789000 5.315000
2.792000 5.320000
2.794000 5.330000
2.797000 5.340000
2.800000 5.335000
2.803000 5.320000
2.806000 5.315000
2.808000 5.300000
2.811000 5.305000
2.814000 5.325000
2.817000 5.325000
2.819000 5.335000
2.822000 5.310000
2.825000 5.315000
2.828000 5.315000
2.831000 5.320000
2.833000 5.325000
2.836000 5.320000
2.839000 5.310000
2.842000 5.320000
2.844000 5.320000
2.847000 5.335000
2.850000 5.325000
2.853000 5.330000
2.856000 5.320000
2.858000 5.310000
2.861000 5.315000
2.864000 5.320000
2.867000 5.320000
2.869000 5.315000
2.872000 5.320000
2.875000 5.310000
2.878000 5.320000
2.881000 5.325000
2.883000 5.330000
2.886000 5.325000
2.889000 5.315000
2.892000 5.310000
2.894000 5.320000
2.897000 5.330000
2.900000 5.335000
2.903000 5.350000
2.906000 5.320000
2.908000 5.325000
2.911000 5.325000
2.914000 5.350000
2.917000 5.350000
2.919000 5.345000
2.922000 5.325000
2.925000 5.330000
2.928000 5.335000
2.931000 5.370000
2.933000 5.360000
2.936000 5.365000
2.939000 5.365000
2.942000 5.360000
2.944000 5.400000
2.947000 5.420000
2.950000 5.415000
2.953000 5.420000
2.956000 5.415000
2.958000 5.420000
2.961000 5.420000
2.964000 5.420000
2.967000 5.415000
2.969000 5.395000
2.972000 5.385000
2.975000 5.385000
2.978000 5.370000
2.981000 5.370000
2.983000 5.375000
2.986000 5.365000
2.989000 5.360000
2.992000 5.350000
2.994000 5.370000
2.997000 5.380000
3.000000 5.360000
3.003000 5.365000
3.006000 5.355000
3.008000 5.340000
3.011000 5.360000
3.014000 5.365000
3.017000 5.350000
3.019000 5.340000
3.022000 5.335000
3.025000 5.310000
3.028000 5.320000
3.031000 5.330000
3.033000 5.320000
3.036000 5.310000
3.039000 5.310000
3.042000 5.310000
3.044000 5.315000
3.047000 5.330000
3.050000 5.330000
3.053000 5.315000
3.056000 5.300000
3.058000 5.300000
3.061000 5.305000
3.064000 5.330000
3.067000 5.325000
3.069000 5.320000
3.072000 5.295000
3.075000 5.305000
3.078000 5.310000
3.081000 5.330000
3.083000 5.320000
3.086000 5.325000
3.089000 5.310000
3.092000 5.310000
3.094000 5.320000
3.097000 5.315000
3.100000 5.315000
3.103000 5.315000
3.106000 5.305000
3.108000 5.295000
3.111000 5.310000
3.114000 5.315000
3.117000 5.315000
3.119000 5.315000
3.122000 5.320000
3.125000 5.320000
3.128000 5.305000
3.131000 5.280000
3.133000 5.215000
3.136000 5.145000
3.139000 5.050000
3.142000 4.940000
3.144000 4.810000
3.147000 4.605000
3.150000 4.360000
3.153000 4.095000
3.156000 3.920000
3.158000 3.865000
3.161000 3.895000
3.164000 3.950000
3.167000 3.985000
3.169000 4.015000
3.172000 4.040000
3.175000 4.080000
3.178000 4.125000
3.181000 4.170000
3.183000 4.175000
3.186000 4.215000
3.189000 4.255000
3.192000 4.290000
3.194000 4.345000
3.197000 4.400000
3.200000 4.450000
3.203000 4.485000
3.206000 4.515000
3.208000 4.575000
3.211000 4.680000
3.214000 4.775000
3.217000 4.860000
3.219000 4.920000
3.222000 4.990000
3.225000 5.065000
3.228000 5.140000
3.231000 5.215000
3.233000 5.280000
3.236000 5.315000
3.239000 5.350000
3.242000 5.390000
3.244000 5.440000
3.247000 5.470000
3.250000 5.510000
3.253000 5.520000
3.256000 5.525000
3.258000 5.525000
3.261000 5.540000
3.264000 5.555000
3.267000 5.575000
3.269000 5.560000
3.272000 5.575000
3.275000 5.565000
3.278000 5.585000
3.281000 5.610000
3.283000 5.610000
3.286000 5.595000
3.289000 5.600000
3.292000 5.595000
3.294000 5.615000
3.297000 5.630000
3.300000 5.640000
3.303000 5.645000
3.306000 5.625000
3.308000 5.645000
3.311000 5.650000
3.314000 5.665000
3.317000 5.660000
3.319000 5.650000
3.322000 5.650000
3.325000 5.645000
3.328000 5.655000
3.331000 5.655000
3.333000 5.660000
3.336000 5.665000
3.339000 5.660000
3.342000 5.660000
3.344000 5.665000
3.347000 5.685000
3.350000 5.685000
3.353000 5.670000
3.356000 5.680000
3.358000 5.670000
3.361000 5.680000
3.364000 5.695000
3.367000 5.695000
3.369000 5.700000
3.372000 5.690000
3.375000 5.695000
3.378000 5.705000
3.381000 5.705000
3.383000 5.705000
3.386000 5.705000
3.389000 5.690000
3.392000 5.685000
3.394000 5.685000
3.397000 5.700000
3.400000 5.695000
3.403000 5.690000
3.406000 5.675000
3.408000 5.670000
3.411000 5.675000
3.414000 5.690000
3.417000 5.685000
3.419000 5.680000
3.422000 5.665000
3.425000 5.670000
3.428000 5.650000
3.431000 5.665000
3.433000 5.665000
3.436000 5.645000
3.439000 5.640000
3.442000 5.625000
3.444000 5.620000
3.447000 5.625000
3.450000 5.625000
3.453000 5.605000
3.456000 5.585000
3.458000 5.565000
3.461000 5.575000
3.464000 5.575000
3.467000 5.560000
3.469000 5.545000
3.472000 5.530000
3.475000 5.525000
3.478000 5.510000
3.481000 5.500000
3.483000 5.490000
3.486000 5.470000
3.489000 5.445000
3.492000 5.435000
3.494000 5.440000
3.497000 5.435000
3.500000 5.430000
3.503000 5.410000
3.506000 5.400000
3.508000 5.385000
3.511000 5.390000
3.514000 5.390000
3.517000 5.400000
3.519000 5.395000
3.522000 5.375000
3.525000 5.365000
3.528000 5.385000
3.531000 5.380000
3.533000 5.380000
3.536000 5.380000
3.539000 5.365000
3.542000 5.360000
3.544000 5.365000
3.547000 5.385000
3.550000 5.375000
3.553000 5.375000
3.556000 5.380000
3.558000 5.370000
3.561000 5.385000
3.564000 5.390000
3.567000 5.390000
3.569000 5.400000
3.572000 5.390000
3.575000 5.385000
3.578000 5.400000
3.581000 5.415000
3.583000 5.425000
3.586000 5.420000
3.589000 5.415000
3.592000 5.405000
3.594000 5.420000
3.597000 5.435000
3.600000 5.420000
3.603000 5.420000
3.606000 5.405000
3.608000 5.415000
3.611000 5.425000
3.614000 5.440000
3.617000 5.435000
3.619000 5.445000
3.622000 5.445000
3.625000 5.435000
3.628000 5.450000
3.631000 5.465000
3.633000 5.465000
3.636000 5.470000
3.639000 5.455000
3.642000 5.440000
3.644000 5.460000
3.647000 5.465000
3.650000 5.460000
3.653000 5.470000
3.656000 5.455000
3.658000 5.435000
3.661000 5.455000
3.664000 5.445000
3.667000 5.450000
3.669000 5.440000
3.672000 5.435000
3.675000 5.435000
3.678000 5.450000
3.681000 5.460000
3.683000 5.470000
3.686000 5.460000
3.689000 5.455000
3.692000 5.445000
3.694000 5.450000
3.697000 5.455000
3.700000 5.450000
3.703000 5.435000
3.706000 5.430000
3.708000 5.435000
3.711000 5.435000
3.714000 5.440000
3.717000 5.430000
3.719000 5.430000
3.722000 5.420000
3.725000 5.415000
3.728000 5.415000
3.731000 5.440000
3.733000 5.440000
3.736000 5.440000
3.739000 5.425000
3.742000 5.420000
3.744000 5.435000
3.747000 5.435000
3.750000 5.435000
3.753000 5.430000
3.756000 5.425000
3.758000 5.425000
3.761000 5.425000
3.764000 5.440000
3.767000 5.445000
3.769000 5.425000
3.772000 5.420000
3.775000 5.410000
3.778000 5.430000
3.781000 5.440000
3.783000 5.440000
3.786000 5.435000
3.789000 5.430000
3.792000 5.425000
3.794000 5.420000
3.797000 5.435000
3.800000 5.425000
3.803000 5.420000
3.806000 5.430000
3.808000 5.410000
3.811000 5.420000
3.814000 5.430000
3.817000 5.440000
3.819000 5.415000
3.822000 5.400000
3.825000 5.400000
3.828000 5.420000
3.831000 5.435000
3.833000 5.430000
3.836000 5.420000
3.839000 5.420000
3.842000 5.420000
3.844000 5.430000
3.847000 5.435000
3.850000 5.435000
3.853000 5.430000
3.856000 5.410000
3.858000 5.415000
3.861000 5.415000
3.864000 5.425000
3.867000 5.425000
3.869000 5.405000
3.872000 5.415000
3.875000 5.410000
3.878000 5.420000
3.881000 5.435000
3.883000 5.425000
3.886000 5.435000
3.889000 5.440000
3.892000 5.450000
3.894000 5.470000
3.897000 5.490000
3.900000 5.495000
3.903000 5.515000
3.906000 5.500000
3.908000 5.505000
3.911000 5.520000
3.914000 5.520000
3.917000 5.500000
3.919000 5.475000
3.922000 5.445000
3.925000 5.445000
3.928000 5.450000
3.931000 5.460000
3.933000 5.455000
3.936000 5.450000
3.939000 5.430000
3.942000 5.440000
3.944000 5.450000
3.947000 5.475000
3.950000 5.480000
3.953000 5.460000
3.956000 5.450000
3.958000 5.435000
3.961000 5.440000
3.964000 5.440000
3.967000 5.435000
3.969000 5.415000
3.972000 5.385000
3.975000 5.385000
3.978000 5.390000
3.981000 5.405000
3.983000 5.405000
3.986000 5.395000
3.989000 5.375000
3.992000 5.390000
3.994000 5.385000
3.997000 5.405000
4.000000 5.395000
4.003000 5.400000
4.006000 5.385000
4.008000 5.380000
4.011000 5.385000
4.014000 5.395000
4.017000 5.400000
4.019000 5.390000
4.022000 5.375000
4.025000 5.385000
4.028000 5.390000
4.031000 5.390000
4.033000 5.390000
4.036000 5.385000
4.039000 5.380000
4.042000 5.375000
4.044000 5.385000
4.047000 5.395000
4.050000 5.385000
4.053000 5.395000
4.056000 5.380000
4.058000 5.380000
4.061000 5.400000
4.064000 5.410000
4.067000 5.410000
4.069000 5.405000
4.072000 5.350000
4.075000 5.280000
4.078000 5.215000
4.081000 5.120000
4.083000 4.995000
4.086000 4.815000
4.089000 4.560000
4.092000 4.275000
4.094000 4.010000
4.097000 3.875000
4.100000 3.865000
4.103000 3.915000
4.106000 3.950000
4.108000 3.990000
4.111000 4.040000
4.114000 4.095000
4.117000 4.155000
4.119000 4.175000
4.122000 4.195000
4.125000 4.195000
4.128000 4.250000
4.131000 4.315000
4.133000 4.365000
4.136000 4.405000
4.139000 4.460000
4.142000 4.520000
4.144000 4.560000
4.147000 4.640000
4.150000 4.720000
4.153000 4.820000
4.156000 4.910000
4.158000 4.995000
4.161000 5.090000
4.164000 5.190000
4.167000 5.265000
4.169000 5.335000
4.172000 5.385000
4.175000 5.445000
4.178000 5.530000
4.181000 5.570000
4.183000 5.610000
4.186000 5.605000
4.189000 5.620000
4.192000 5.640000
4.194000 5.650000
4.197000 5.680000
4.200000 5.685000
4.203000 5.700000
4.206000 5.690000
4.208000 5.705000
4.211000 5.730000
4.214000 5.745000
4.217000 5.760000
4.219000 5.750000
4.222000 5.750000
4.225000 5.760000
4.228000 5.775000
4.231000 5.790000
4.233000 5.780000
4.236000 5.795000
4.239000 5.775000
4.242000 5.770000
4.244000 5.790000
4.247000 5.800000
4.250000 5.795000
4.253000 5.795000
4.256000 5.795000
4.258000 5.790000
4.261000 5.815000
4.264000 5.825000
4.267000 5.820000
4.269000 5.810000
4.272000 5.810000
4.275000 5.820000
4.278000 5.835000
4.281000 5.840000
4.283000 5.825000
4.286000 5.830000
4.289000 5.825000
4.292000 5.835000
4.294000 5.835000
4.297000 5.850000
4.300000 5.850000
4.303000 5.835000
4.306000 5.840000
4.308000 5.835000
4.311000 5.850000
4.314000 5.860000
4.317000 5.855000
4.319000 5.860000
4.322000 5.860000
4.325000 5.840000
4.328000 5.835000
4.331000 5.865000
4.333000 5.855000
4.336000 5.855000
4.339000 5.835000
4.342000 5.850000
4.344000 5.840000
4.347000 5.845000
4.350000 5.835000
4.353000 5.825000
4.356000 5.810000
4.358000 5.810000
4.361000 5.815000
4.364000 5.825000
4.367000 5.825000
4.369000 5.800000
4.372000 5.775000
4.375000 5.775000
4.378000 5.780000
4.381000 5.775000
4.383000 5.775000
4.386000 5.750000
4.389000 5.720000
4.392000 5.710000
4.394000 5.700000
4.397000 5.690000
4.400000 5.675000
4.403000 5.665000
4.406000 5.635000
4.408000 5.625000
4.411000 5.630000
4.414000 5.625000
4.417000 5.625000
4.419000 5.590000
4.422000 5.560000
4.425000 5.570000
4.428000 5.580000
4.431000 5.595000
4.433000 5.585000
4.436000 5.565000
4.439000 5.545000
4.442000 5.545000
4.444000 5.555000
4.447000 5.570000
4.450000 5.560000
4.453000 5.560000
4.456000 5.555000
4.458000 5.555000
4.461000 5.565000
4.464000 5.580000
4.467000 5.570000
4.469000 5.560000
4.472000 5.555000
4.475000 5.550000
4.478000 5.575000
4.481000 5.595000
4.483000 5.590000
4.486000 5.590000
4.489000 5.585000
4.492000 5.575000
4.494000 5.580000
4.497000 5.590000
4.500000 5.595000
4.503000 5.600000
4.506000 5.575000
4.508000 5.585000
4.511000 5.600000
4.514000 5.610000
4.517000 5.605000
4.519000 5.610000
4.522000 5.595000
4.525000 5.595000
4.528000 5.620000
4.531000 5.630000
4.533000 5.630000
4.536000 5.625000
4.539000 5.605000
4.542000 5.610000
4.544000 5.630000
4.547000 5.635000
4.550000 5.630000
4.553000 5.625000
4.556000 5.620000
4.558000 5.610000
4.561000 5.615000
4.564000 5.645000
4.567000 5.635000
4.569000 5.625000
4.572000 5.625000
4.575000 5.630000
4.578000 5.630000
4.581000 5.635000
4.583000 5.630000
4.586000 5.625000
4.589000 5.610000
4.592000 5.610000
4.594000 5.600000
4.597000 5.615000
4.600000 5.610000
4.603000 5.610000
4.606000 5.600000
4.608000 5.590000
4.611000 5.595000
4.614000 5.610000
4.617000 5.610000
4.619000 5.590000
4.622000 5.585000
4.625000 5.595000
4.628000 5.610000
4.631000 5.610000
4.633000 5.595000
4.636000 5.590000
4.639000 5.570000
4.642000 5.560000
4.644000 5.560000
4.647000 5.585000
4.650000 5.580000
4.653000 5.580000
4.656000 5.570000
4.658000 5.550000
4.661000 5.550000
4.664000 5.575000
4.667000 5.565000
4.669000 5.565000
4.672000 5.550000
4.675000 5.545000
4.678000 5.560000
4.681000 5.570000
4.683000 5.570000
4.686000 5.560000
4.689000 5.555000
4.692000 5.540000
4.694000 5.555000
4.697000 5.560000
4.700000 5.555000
4.703000 5.550000
4.706000 5.555000
4.708000 5.545000
4.711000 5.550000
4.714000 5.565000
4.717000 5.545000
4.719000 5.550000
4.722000 5.545000
4.725000 5.545000
4.728000 5.560000
4.731000 5.575000
4.733000 5.575000
4.736000 5.570000
4.739000 5.560000
4.742000 5.550000
4.744000 5.545000
4.747000 5.555000
4.750000 5.560000
4.753000 5.560000
4.756000 5.550000
4.758000 5.545000
4.761000 5.545000
4.764000 5.565000
4.767000 5.545000
4.769000 5.555000
4.772000 5.540000
4.775000 5.550000
4.778000 5.560000
4.781000 5.565000
4.783000 5.560000
4.786000 5.560000
4.789000 5.555000
4.792000 5.560000
4.794000 5.565000
4.797000 5.585000
4.800000 5.595000
4.803000 5.600000
4.806000 5.595000
4.808000 5.610000
4.811000 5.625000
4.814000 5.640000
4.817000 5.655000
4.819000 5.655000
4.822000 5.645000
4.825000 5.640000
4.828000 5.665000
4.831000 5.650000
4.833000 5.630000
4.836000 5.620000
4.839000 5.610000
4.842000 5.605000
4.844000 5.610000
4.847000 5.610000
4.850000 5.605000
4.853000 5.600000
4.856000 5.590000
4.858000 5.575000
4.861000 5.605000
4.864000 5.620000
4.867000 5.595000
4.869000 5.590000
4.872000 5.575000
4.875000 5.570000
4.878000 5.575000
4.881000 5.570000
4.883000 5.560000
4.886000 5.555000
4.889000 5.535000
4.892000 5.540000
4.894000 5.535000
4.897000 5.560000
4.900000 5.555000
4.903000 5.535000
4.906000 5.525000
4.908000 5.520000
4.911000 5.525000
4.914000 5.535000
4.917000 5.535000
4.919000 5.530000
4.922000 5.515000
4.925000 5.515000
4.928000 5.525000
4.931000 5.540000
4.933000 5.540000
4.936000 5.540000
4.939000 5.530000
4.942000 5.535000
4.944000 5.545000
4.947000 5.565000
4.950000 5.545000
4.953000 5.530000
4.956000 5.525000
4.958000 5.525000
4.961000 5.545000
4.964000 5.535000
4.967000 5.535000
4.969000 5.530000
4.972000 5.510000
4.975000 5.520000
4.978000 5.515000
4.981000 5.530000
4.983000 5.550000
4.986000 5.540000
4.989000 5.475000
4.992000 5.375000
4.994000 5.230000
4.997000 5.060000
5.000000 4.820000
5.003000 4.565000
5.006000 4.245000
5.008000 3.955000
5.011000 3.735000
5.014000 3.660000
5.017000 3.690000
5.019000 3.760000
5.022000 3.805000
5.025000 3.855000
5.028000 3.920000
5.031000 3.990000
5.033000 4.020000
5.036000 4.045000
5.039000 4.060000
5.042000 4.130000
5.044000 4.200000
5.047000 4.300000
5.050000 4.365000
5.053000 4.430000
5.056000 4.490000
5.058000 4.555000
5.061000 4.650000
5.064000 4.785000
5.067000 4.900000
5.069000 5.025000
5.072000 5.110000
5.075000 5.210000
5.078000 5.310000
5.081000 5.405000
5.083000 5.480000
5.086000 5.560000
5.089000 5.630000
5.092000 5.705000
5.094000 5.750000
5.097000 5.795000
5.100000 5.815000
5.103000 5.840000
5.106000 5.840000
5.108000 5.855000
5.111000 5.875000
5.114000 5.900000
5.117000 5.895000
5.119000 5.910000
5.122000 5.910000
5.125000 5.925000
5.128000 5.925000
5.131000 5.950000
5.133000 5.950000
5.136000 5.955000
5.139000 5.950000
5.142000 5.960000
5.144000 5.975000
5.147000 5.985000
5.150000 5.990000
5.153000 5.980000
5.156000 5.990000
5.158000 6.000000
5.161000 6.015000
5.164000 6.035000
5.167000 6.040000
5.169000 6.020000
5.172000 6.000000
5.175000 6.005000
5.178000 6.020000
5.181000 6.035000
5.183000 6.035000
5.186000 6.030000
5.189000 6.025000
5.192000 6.025000
5.194000 6.040000
5.197000 6.055000
5.200000 6.055000
5.203000 6.055000
5.206000 6.055000
5.208000 6.055000
5.211000 6.065000
5.214000 6.085000
5.217000 6.085000
5.219000 6.090000
5.222000 6.070000
5.225000 6.070000
5.228000 6.075000
5.231000 6.075000
5.233000 6.090000
5.236000 6.075000
5.239000 6.080000
5.242000 6.060000
5.244000 6.075000
5.247000 6.080000
5.250000 6.075000
5.253000 6.065000
5.256000 6.065000
5.258000 6.065000
5.261000 6.070000
5.264000 6.070000
5.267000 6.075000
5.269000 6.060000
5.272000 6.050000
5.275000 6.040000
5.278000 6.045000
5.281000 6.035000
5.283000 6.020000
5.286000 6.005000
5.289000 5.995000
5.292000 5.975000
5.294000 5.965000
5.297000 5.970000
5.300000 5.955000
5.303000 5.935000
5.306000 5.895000
5.308000 5.880000
5.311000 5.880000
5.314000 5.880000
5.317000 5.870000
5.319000 5.835000
5.322000 5.820000
5.325000 5.800000
5.328000 5.795000
5.331000 5.795000
5.333000 5.775000
5.336000 5.775000
5.339000 5.760000
5.342000 5.760000
5.344000 5.755000
5.347000 5.750000
5.350000 5.730000
5.353000 5.725000
5.356000 5.710000
5.358000 5.715000
5.361000 5.725000
5.364000 5.720000
5.367000 5.720000
5.369000 5.735000
5.372000 5.715000
5.375000 5.705000
5.378000 5.715000
5.381000 5.735000
5.383000 5.740000
5.386000 5.735000
5.389000 5.725000
5.392000 5.730000
5.394000 5.725000
5.397000 5.735000
5.400000 5.740000
5.403000 5.730000
5.406000 5.730000
5.408000 5.725000
5.411000 5.745000
5.414000 5.760000
5.417000 5.755000
5.419000 5.760000
5.422000 5.750000
5.425000 5.765000
5.428000 5.775000
5.431000 5.790000
5.433000 5.780000
5.436000 5.790000
5.439000 5.780000
5.442000 5.780000
5.444000 5.780000
5.447000 5.795000
5.450000 5.805000
5.453000 5.805000
5.456000 5.785000
5.458000 5.795000
5.461000 5.810000
5.464000 5.810000
5.467000 5.810000
5.469000 5.805000
5.472000 5.790000
5.475000 5.795000
5.478000 5.810000
5.481000 5.830000
5.483000 5.835000
5.486000 5.820000
5.489000 5.825000
5.492000 5.800000
5.494000 5.815000
5.497000 5.825000
5.500000 5.830000
5.503000 5.820000
5.506000 5.815000
5.508000 5.795000
5.511000 5.810000
5.514000 5.830000
5.517000 5.830000
5.519000 5.825000
5.522000 5.810000
5.525000 5.815000
5.528000 5.820000
5.531000 5.820000
5.533000 5.820000
5.536000 5.815000
5.539000 5.805000
5.542000 5.790000
5.544000 5.810000
5.547000 5.810000
5.550000 5.800000
5.553000 5.790000
5.556000 5.790000
5.558000 5.795000
5.561000 5.805000
5.564000 5.805000
5.567000 5.790000
5.569000 5.795000
5.572000 5.780000
5.575000 5.775000
5.578000 5.790000
5.581000 5.795000
5.583000 5.800000
5.586000 5.800000
5.589000 5.780000
5.592000 5.775000
5.594000 5.780000
5.597000 5.790000
5.600000 5.800000
5.603000 5.795000
5.606000 5.795000
5.608000 5.770000
5.611000 5.785000
5.614000 5.775000
5.617000 5.785000
5.619000 5.770000
5.622000 5.765000
5.625000 5.760000
5.628000 5.770000
5.631000 5.775000
5.633000 5.775000
5.636000 5.775000
5.639000 5.760000
5.642000 5.750000
5.644000 5.750000
5.647000 5.765000
5.650000 5.755000
5.653000 5.755000
5.656000 5.745000
5.658000 5.740000
5.661000 5.735000
5.664000 5.750000
5.667000 5.735000
5.669000 5.735000
5.672000 5.720000
5.675000 5.730000
5.678000 5.720000
5.681000 5.730000
5.683000 5.720000
5.686000 5.710000
5.689000 5.700000
5.692000 5.695000
5.694000 5.700000
5.697000 5.715000
5.700000 5.720000
5.703000 5.700000
5.706000 5.700000
5.708000 5.705000
5.711000 5.710000
5.714000 5.730000
5.717000 5.710000
5.719000 5.700000
5.722000 5.690000
5.725000 5.685000
5.728000 5.680000
5.731000 5.700000
5.733000 5.705000
5.736000 5.705000
5.739000 5.695000
5.742000 5.705000
5.744000 5.725000
5.747000 5.735000
5.750000 5.730000
5.753000 5.735000
5.756000 5.735000
5.758000 5.750000
5.761000 5.760000
5.764000 5.770000
5.767000 5.785000
5.769000 5.785000
5.772000 5.765000
5.775000 5.745000
5.778000 5.720000
5.781000 5.730000
5.783000 5.710000
5.786000 5.695000
5.789000 5.680000
5.792000 5.685000
5.794000 5.690000
5.797000 5.695000
5.800000 5.695000
5.803000 5.685000
5.806000 5.680000
5.808000 5.665000
5.811000 5.675000
5.814000 5.690000
5.817000 5.680000
5.819000 5.665000
5.822000 5.650000
5.825000 5.640000
5.828000 5.635000
5.831000 5.640000
5.833000 5.625000
5.836000 5.625000
5.839000 5.610000
5.842000 5.595000
5.844000 5.615000
5.847000 5.615000
5.850000 5.625000
5.853000 5.625000
5.856000 5.595000
5.858000 5.595000
5.861000 5.615000
5.864000 5.620000
5.867000 5.610000
5.869000 5.605000
5.872000 5.600000
5.875000 5.580000
5.878000 5.595000
5.881000 5.600000
5.883000 5.605000
5.886000 5.590000
5.889000 5.580000
5.892000 5.580000
5.894000 5.600000
5.897000 5.585000
5.900000 5.585000
5.903000 5.580000
5.906000 5.555000
5.908000 5.570000
5.911000 5.585000
5.914000 5.595000
5.917000 5.600000
5.919000 5.570000
5.922000 5.510000
5.925000 5.410000
5.928000 5.310000
5.931000 5.180000
5.933000 5.010000
5.936000 4.790000
5.939000 4.465000
5.942000 4.140000
5.944000 3.940000
5.947000 3.885000
5.950000 3.925000
5.953000 3.975000
5.956000 4.010000
5.958000 4.065000
5.961000 4.120000
5.964000 4.180000
5.967000 4.210000
5.969000 4.235000
5.972000 4.260000
5.975000 4.290000
5.978000 4.365000
5.981000 4.445000
5.983000 4.495000
5.986000 4.560000
5.989000 4.600000
5.992000 4.640000
5.994000 4.750000
5.997000 4.870000
6.000000 4.980000
6.003000 5.085000
6.006000 5.155000
6.008000 5.245000
6.011000 5.330000
6.014000 5.420000
6.017000 5.500000
6.019000 5.565000
6.022000 5.600000
6.025000 5.655000
6.028000 5.705000
6.031000 5.745000
6.033000 5.770000
6.036000 5.770000
6.039000 5.760000
6.042000 5.780000
6.044000 5.785000
6.047000 5.810000
6.050000 5.815000
6.053000 5.815000
6.056000 5.820000
6.058000 5.820000
6.061000 5.835000
6.064000 5.845000
6.067000 5.860000
6.069000 5.845000
6.072000 5.845000
6.075000 5.855000
6.078000 5.870000
6.081000 5.870000
6.083000 5.880000
6.086000 5.865000
6.089000 5.865000
6.092000 5.875000
6.094000 5.865000
6.097000 5.880000
6.100000 5.870000
6.103000 5.885000
6.106000 5.870000
6.108000 5.870000
6.111000 5.875000
6.114000 5.890000
6.117000 5.890000
6.119000 5.890000
6.122000 5.880000
6.125000 5.880000
6.128000 5.895000
6.131000 5.915000
6.133000 5.905000
6.136000 5.910000
6.139000 5.915000
6.142000 5.900000
6.144000 5.905000
6.147000 5.905000
6.150000 5.910000
6.153000 5.910000
6.156000 5.890000
6.158000 5.895000
6.161000 5.910000
6.164000 5.905000
6.167000 5.910000
6.169000 5.890000
6.172000 5.885000
6.175000 5.880000
6.178000 5.880000
6.181000 5.900000
6.183000 5.895000
6.186000 5.895000
6.189000 5.875000
6.192000 5.870000
6.194000 5.880000
6.197000 5.885000
6.200000 5.875000
6.203000 5.875000
6.206000 5.860000
6.208000 5.860000
6.211000 5.850000
6.214000 5.850000
6.217000 5.850000
6.219000 5.835000
6.222000 5.825000
6.225000 5.805000
6.228000 5.800000
6.231000 5.790000
6.233000 5.795000
6.236000 5.780000
6.239000 5.765000
6.242000 5.750000
6.244000 5.740000
6.247000 5.735000
6.250000 5.720000
6.253000 5.700000
6.256000 5.675000
6.258000 5.650000
6.261000 5.650000
6.264000 5.655000
6.267000 5.650000
6.269000 5.615000
6.272000 5.595000
6.275000 5.580000
6.278000 5.580000
6.281000 5.585000
6.283000 5.570000
6.286000 5.555000
6.289000 5.545000
6.292000 5.530000
6.294000 5.530000
6.297000 5.540000
6.300000 5.530000
6.303000 5.525000
6.306000 5.515000
6.308000 5.510000
6.311000 5.525000
6.314000 5.535000
6.317000 5.515000
6.319000 5.505000
6.322000 5.485000
6.325000 5.490000
6.328000 5.500000
6.331000 5.510000
6.333000 5.510000
6.336000 5.515000
6.339000 5.505000
6.342000 5.495000
6.344000 5.505000
6.347000 5.525000
6.350000 5.520000
6.353000 5.520000
6.356000 5.520000
6.358000 5.520000
6.361000 5.520000
6.364000 5.540000
6.367000 5.535000
6.369000 5.525000
6.372000 5.530000
6.375000 5.520000
6.378000 5.530000
6.381000 5.540000
6.383000 5.545000
6.386000 5.540000
6.389000 5.525000
6.392000 5.530000
6.394000 5.550000
6.397000 5.565000
6.400000 5.570000
6.403000 5.565000
6.406000 5.540000
6.408000 5.550000
6.411000 5.565000
6.414000 5.570000
6.417000 5.565000
6.419000 5.570000
6.422000 5.565000
6.425000 5.555000
6.428000 5.580000
6.431000 5.570000
6.433000 5.570000
6.436000 5.560000
6.439000 5.545000
6.442000 5.555000
6.444000 5.560000
6.447000 5.575000
6.450000 5.575000
6.453000 5.550000
6.456000 5.545000
6.458000 5.545000
6.461000 5.540000
6.464000 5.560000
6.467000 5.550000
6.469000 5.550000
6.472000 5.545000
6.475000 5.550000
6.478000 5.550000
6.481000 5.550000
6.483000 5.535000
6.486000 5.535000
6.489000 5.525000
6.492000 5.510000
6.494000 5.515000
6.497000 5.520000
6.500000 5.520000
6.503000 5.520000
6.506000 5.500000
6.508000 5.505000
6.511000 5.510000
6.514000 5.515000
6.517000 5.510000
6.519000 5.495000
6.522000 5.485000
6.525000 5.480000
6.528000 5.500000
6.531000 5.515000
6.533000 5.510000
6.536000 5.505000
6.539000 5.500000
6.542000 5.485000
6.544000 5.490000
6.547000 5.510000
6.550000 5.510000
6.553000 5.500000
6.556000 5.470000
6.558000 5.460000
6.561000 5.475000
6.564000 5.485000
6.567000 5.485000
6.569000 5.480000
6.572000 5.475000
6.575000 5.475000
6.578000 5.480000
6.581000 5.475000
6.583000 5.485000
6.586000 5.485000
6.589000 5.475000
6.592000 5.485000
6.594000 5.490000
6.597000 5.495000
6.600000 5.490000
6.603000 5.480000
6.606000 5.460000
6.608000 5.465000
6.611000 5.470000
6.614000 5.480000
6.617000 5.475000
6.619000 5.480000
6.622000 5.465000
6.625000 5.460000
6.628000 5.475000
6.631000 5.475000
6.633000 5.465000
6.636000 5.455000
6.639000 5.455000
6.642000 5.460000
6.644000 5.470000
6.647000 5.485000
6.650000 5.475000
6.653000 5.475000
6.656000 5.450000
6.658000 5.470000
6.661000 5.470000
6.664000 5.465000
6.667000 5.460000
6.669000 5.455000
6.672000 5.440000
6.675000 5.450000
6.678000 5.460000
6.681000 5.465000
6.683000 5.455000
6.686000 5.450000
6.689000 5.440000
6.692000 5.435000
6.694000 5.450000
6.697000 5.455000
6.700000 5.455000
6.703000 5.450000
6.706000 5.445000
6.708000 5.440000
6.711000 5.460000
6.714000 5.465000
6.717000 5.485000
6.719000 5.475000
6.722000 5.475000
6.725000 5.480000
6.728000 5.500000
6.731000 5.530000
6.733000 5.530000
6.736000 5.520000
6.739000 5.520000
6.742000 5.520000
6.744000 5.525000
6.747000 5.510000
6.750000 5.495000
6.753000 5.475000
6.756000 5.470000
6.758000 5.460000
6.761000 5.465000
6.764000 5.455000
6.767000 5.465000
6.769000 5.450000
6.772000 5.445000
6.775000 5.450000
6.778000 5.450000
6.781000 5.450000
6.783000 5.450000
6.786000 5.420000
6.789000 5.410000
6.792000 5.420000
6.794000 5.425000
6.797000 5.430000
6.800000 5.415000
6.803000 5.415000
6.806000 5.390000
6.808000 5.380000
6.811000 5.380000
6.814000 5.385000
6.817000 5.390000
6.819000 5.385000
6.822000 5.380000
6.825000 5.375000
6.828000 5.380000
6.831000 5.370000
6.833000 5.385000
6.836000 5.360000
6.839000 5.370000
6.842000 5.360000
6.844000 5.370000
6.847000 5.395000
6.850000 5.365000
6.853000 5.365000
6.856000 5.350000
6.858000 5.360000
6.861000 5.365000
6.864000 5.370000
6.867000 5.370000
6.869000 5.365000
6.872000 5.350000
6.875000 5.340000
6.878000 5.355000
6.881000 5.355000
6.883000 5.345000
6.886000 5.345000
6.889000 5.330000
6.892000 5.340000
6.894000 5.340000
6.897000 5.335000
6.900000 5.335000
6.903000 5.340000
6.906000 5.350000
6.908000 5.345000
6.911000 5.335000
6.914000 5.285000
6.917000 5.215000
6.919000 5.110000
6.922000 4.965000
6.925000 4.810000
6.928000 4.630000
6.931000 4.425000
6.933000 4.125000
6.936000 3.860000
6.939000 3.645000
6.942000 3.570000
6.944000 3.615000
6.947000 3.675000
6.950000 3.730000
6.953000 3.770000
6.956000 3.815000
6.958000 3.860000
6.961000 3.920000
6.964000 3.960000
6.967000 3.975000
6.969000 3.990000
6.972000 4.030000
6.975000 4.065000
6.978000 4.125000
6.981000 4.205000
6.983000 4.245000
6.986000 4.305000
6.989000 4.340000
6.992000 4.400000
6.994000 4.485000
6.997000 4.585000
7.000000 4.695000
7.003000 4.790000
7.006000 4.870000
7.008000 4.955000
7.011000 5.045000
7.014000 5.140000
7.017000 5.205000
7.019000 5.255000
7.022000 5.310000
7.025000 5.395000
7.028000 5.465000
7.031000 5.520000
7.033000 5.545000
7.036000 5.565000
7.039000 5.565000
7.042000 5.565000
7.044000 5.580000
7.047000 5.605000
7.050000 5.615000
7.053000 5.630000
7.056000 5.620000
7.058000 5.620000
7.061000 5.630000
7.064000 5.650000
7.067000 5.665000
7.069000 5.680000
7.072000 5.655000
7.075000 5.645000
7.078000 5.650000
7.081000 5.665000
7.083000 5.675000
7.086000 5.670000
7.089000 5.660000
7.092000 5.655000
7.094000 5.660000
7.097000 5.670000
7.100000 5.695000
7.103000 5.690000
7.106000 5.675000
7.108000 5.665000
7.111000 5.680000
7.114000 5.700000
7.117000 5.705000
7.119000 5.695000
7.122000 5.680000
7.125000 5.685000
7.128000 5.685000
7.131000 5.685000
7.133000 5.670000
7.136000 5.670000
7.139000 5.675000
7.142000 5.685000
7.144000 5.690000
7.147000 5.690000
7.150000 5.685000
7.153000 5.680000
7.156000 5.665000
7.158000 5.665000
7.161000 5.685000
7.164000 5.690000
7.167000 5.695000
7.169000 5.690000
7.172000 5.685000
7.175000 5.680000
7.178000 5.695000
7.181000 5.715000
7.183000 5.700000
7.186000 5.690000
7.189000 5.670000
7.192000 5.665000
7.194000 5.655000
7.197000 5.650000
7.200000 5.645000
7.203000 5.650000
7.206000 5.655000
7.208000 5.675000
7.211000 5.645000
7.214000 5.625000
7.217000 5.605000
7.219000 5.600000
7.222000 5.600000
7.225000 5.605000
7.228000 5.620000
7.231000 5.620000
7.233000 5.605000
7.236000 5.605000
7.239000 5.585000
7.242000 5.590000
7.244000 5.580000
7.247000 5.565000
7.250000 5.540000
7.253000 5.525000
7.256000 5.520000
7.258000 5.505000
7.261000 5.500000
7.264000 5.495000
7.267000 5.490000
7.269000 5.465000
7.272000 5.450000
7.275000 5.420000
7.278000 5.410000
7.281000 5.415000
7.283000 5.410000
7.286000 5.390000
7.289000 5.365000
7.292000 5.355000
7.294000 5.360000
7.297000 5.365000
7.300000 5.335000
7.303000 5.310000
7.306000 5.290000
7.308000 5.285000
7.311000 5.300000
7.314000 5.305000
7.317000 5.290000
7.319000 5.290000
7.322000 5.270000
7.325000 5.265000
7.328000 5.265000
7.331000 5.265000
7.333000 5.275000
7.336000 5.255000
7.339000 5.235000
7.342000 5.245000
7.344000 5.265000
7.347000 5.280000
7.350000 5.265000
7.353000 5.260000
7.356000 5.260000
7.358000 5.260000
7.361000 5.265000
7.364000 5.255000
7.367000 5.260000
7.369000 5.250000
7.372000 5.245000
7.375000 5.250000
7.378000 5.240000
7.381000 5.260000
7.383000 5.270000
7.386000 5.270000
7.389000 5.270000
7.392000 5.265000
7.394000 5.275000
7.397000 5.290000
7.400000 5.270000
7.403000 5.250000
7.406000 5.255000
7.408000 5.265000
7.411000 5.280000
7.414000 5.290000
7.417000 5.280000
7.419000 5.265000
7.422000 5.260000
7.425000 5.270000
7.428000 5.295000
7.431000 5.295000
7.433000 5.295000
7.436000 5.270000
7.439000 5.255000
7.442000 5.250000
7.444000 5.275000
7.447000 5.285000
7.450000 5.300000
7.453000 5.295000
7.456000 5.280000
7.458000 5.275000
7.461000 5.270000
7.464000 5.280000
7.467000 5.275000
7.469000 5.275000
7.472000 5.260000
7.475000 5.265000
7.478000 5.270000
7.481000 5.270000
7.483000 5.250000
7.486000 5.250000
7.489000 5.240000
7.492000 5.250000
7.494000 5.260000
7.497000 5.270000
7.500000 5.260000
7.503000 5.250000
7.506000 5.230000
7.508000 5.240000
7.511000 5.255000
7.514000 5.250000
7.517000 5.240000
7.519000 5.225000
7.522000 5.215000
7.525000 5.225000
7.528000 5.250000
7.531000 5.260000
7.533000 5.255000
7.536000 5.235000
7.539000 5.200000
7.542000 5.195000
7.544000 5.215000
7.547000 5.215000
7.550000 5.215000
7.553000 5.215000
7.556000 5.205000
7.558000 5.200000
7.561000 5.185000
7.564000 5.200000
7.567000 5.200000
7.569000 5.205000
7.572000 5.185000
7.575000 5.195000
7.578000 5.195000
7.581000 5.210000
7.583000 5.205000
7.586000 5.205000
7.589000 5.190000
7.592000 5.190000
7.594000 5.200000
7.597000 5.205000
7.600000 5.195000
7.603000 5.185000
7.606000 5.175000
7.608000 5.180000
7.611000 5.190000
7.614000 5.195000
7.617000 5.200000
7.619000 5.180000
7.622000 5.170000
7.625000 5.175000
7.628000 5.185000
7.631000 5.195000
7.633000 5.205000
7.636000 5.185000
7.639000 5.180000
7.642000 5.195000
7.644000 5.195000
7.647000 5.210000
7.650000 5.195000
7.653000 5.180000
7.656000 5.165000
7.658000 5.170000
7.661000 5.185000
7.664000 5.195000
7.667000 5.190000
7.669000 5.175000
7.672000 5.165000
7.675000 5.165000
7.678000 5.185000
7.681000 5.190000
7.683000 5.185000
7.686000 5.160000
7.689000 5.170000
7.692000 5.175000
7.694000 5.190000
7.697000 5.190000
7.700000 5.185000
7.703000 5.170000
7.706000 5.175000
7.708000 5.190000
7.711000 5.185000
7.714000 5.160000
7.717000 5.170000
7.719000 5.160000
7.722000 5.160000
7.725000 5.155000
7.728000 5.175000
7.731000 5.175000
7.733000 5.180000
7.736000 5.175000
7.739000 5.185000
7.742000 5.190000
7.744000 5.180000
7.747000 5.180000
7.750000 5.200000
7.753000 5.190000
7.756000 5.180000
7.758000 5.185000
7.761000 5.195000
7.764000 5.205000
7.767000 5.225000
7.769000 5.220000
7.772000 5.225000
7.775000 5.240000
7.778000 5.255000
7.781000 5.275000
7.783000 5.265000
7.786000 5.255000
7.789000 5.240000
7.792000 5.230000
7.794000 5.245000
7.797000 5.255000
7.800000 5.230000
7.803000 5.200000
7.806000 5.175000
7.808000 5.165000
7.811000 5.185000
7.814000 5.205000
7.817000 5.195000
7.819000 5.190000
7.822000 5.185000
7.825000 5.180000
7.828000 5.180000
7.831000 5.170000
7.833000 5.170000
7.836000 5.160000
7.839000 5.150000
7.842000 5.130000
7.844000 5.130000
7.847000 5.145000
7.850000 5.145000
7.853000 5.130000
7.856000 5.120000
7.858000 5.120000
7.861000 5.135000
7.864000 5.145000
7.867000 5.150000
7.869000 5.130000
7.872000 5.100000
7.875000 5.110000
7.878000 5.105000
7.881000 5.125000
7.883000 5.115000
7.886000 5.115000
7.889000 5.100000
7.892000 5.105000
7.894000 5.120000
7.897000 5.120000
7.900000 5.120000
7.903000 5.125000
7.906000 5.115000
7.908000 5.120000
7.911000 5.125000
7.914000 5.120000
7.917000 5.125000
7.919000 5.115000
7.922000 5.110000
7.925000 5.105000
7.928000 5.115000
7.931000 5.125000
7.933000 5.120000
7.936000 5.100000
7.939000 5.090000
7.942000 5.100000
7.944000 5.120000
7.947000 5.130000
7.950000 5.110000
7.953000 5.045000
7.956000 4.955000
7.958000 4.865000
7.961000 4.760000
7.964000 4.640000
7.967000 4.455000
7.969000 4.210000
7.972000 3.920000
7.975000 3.660000
7.978000 3.540000
7.981000 3.545000
7.983000 3.600000
7.986000 3.630000
7.989000 3.665000
7.992000 3.695000
7.994000 3.770000
7.997000 3.835000
8.000000 3.860000
8.003000 3.870000
8.006000 3.870000
8.008000 3.905000
8.011000 3.980000
8.014000 4.055000
8.017000 4.105000
8.019000 4.135000
8.022000 4.175000
8.025000 4.230000
8.028000 4.290000
8.031000 4.375000
8.033000 4.475000
8.036000 4.580000
8.039000 4.650000
8.042000 4.730000
8.044000 4.820000
8.047000 4.920000
8.050000 4.980000
8.053000 5.050000
8.056000 5.095000
8.058000 5.150000
8.061000 5.220000
8.064000 5.270000
8.067000 5.305000
8.069000 5.320000
8.072000 5.335000
8.075000 5.335000
8.078000 5.370000
8.081000 5.385000
8.083000 5.395000
8.086000 5.395000
8.089000 5.410000
8.092000 5.415000
8.094000 5.430000
8.097000 5.425000
8.100000 5.420000
8.103000 5.430000
8.106000 5.420000
8.108000 5.430000
8.111000 5.450000
8.114000 5.470000
8.117000 5.470000
8.119000 5.460000
8.122000 5.440000
8.125000 5.445000
8.128000 5.470000
8.131000 5.475000
8.133000 5.480000
8.136000 5.465000
8.139000 5.480000
8.142000 5.470000
8.144000 5.485000
8.147000 5.495000
8.150000 5.490000
8.153000 5.500000
8.156000 5.480000
8.158000 5.475000
8.161000 5.485000
8.164000 5.495000
8.167000 5.495000
8.169000 5.490000
8.172000 5.490000
8.175000 5.490000
8.178000 5.490000
8.181000 5.500000
8.183000 5.495000
8.186000 5.500000
8.189000 5.485000
8.192000 5.500000
8.194000 5.525000
8.197000 5.530000
8.200000 5.525000
8.203000 5.515000
8.206000 5.500000
8.208000 5.510000
8.211000 5.510000
8.214000 5.520000
8.217000 5.510000
8.219000 5.495000
8.222000 5.500000
8.225000 5.490000
8.228000 5.510000
8.231000 5.515000
8.233000 5.495000
8.236000 5.485000
8.239000 5.480000
8.242000 5.485000
8.244000 5.505000
8.247000 5.500000
8.250000 5.490000
8.253000 5.475000
8.256000 5.460000
8.258000 5.455000
8.261000 5.480000
8.264000 5.475000
8.267000 5.455000
8.269000 5.440000
8.272000 5.430000
8.275000 5.405000
8.278000 5.410000
8.281000 5.405000
8.283000 5.395000
8.286000 5.390000
8.289000 5.375000
8.292000 5.365000
8.294000 5.360000
8.297000 5.360000
8.300000 5.350000
8.303000 5.340000
8.306000 5.320000
8.308000 5.295000
8.311000 5.280000
8.314000 5.295000
8.317000 5.280000
8.319000 5.275000
8.322000 5.250000
8.325000 5.235000
8.328000 5.225000
8.331000 5.220000
8.333000 5.220000
8.336000 5.215000
8.339000 5.195000
8.342000 5.190000
8.344000 5.210000
8.347000 5.210000
8.350000 5.195000
8.353000 5.180000
8.356000 5.160000
8.358000 5.180000
8.361000 5.190000
8.364000 5.190000
8.367000 5.180000
8.369000 5.190000
8.372000 5.180000
8.375000 5.185000
8.378000 5.195000
8.381000 5.195000
8.383000 5.190000
8.386000 5.195000
8.389000 5.185000
8.392000 5.180000
8.394000 5.195000
8.397000 5.200000
8.400000 5.200000
8.403000 5.190000
8.406000 5.190000
8.408000 5.195000
8.411000 5.200000
8.414000 5.235000
8.417000 5.245000
8.419000 5.235000
8.422000 5.215000
8.425000 5.215000
8.428000 5.225000
8.431000 5.245000
8.433000 5.240000
8.436000 5.235000
8.439000 5.220000
8.442000 5.230000
8.444000 5.250000
8.447000 5.250000
8.450000 5.265000
8.453000 5.255000
8.456000 5.235000
8.458000 5.225000
8.461000 5.235000
8.464000 5.250000
8.467000 5.265000
8.469000 5.260000
8.472000 5.250000
8.475000 5.255000
8.478000 5.260000
8.481000 5.265000
8.483000 5.255000
8.486000 5.245000
8.489000 5.255000
8.492000 5.240000
8.494000 5.250000
8.497000 5.245000
8.500000 5.265000
8.503000 5.250000
8.506000 5.235000
8.508000 5.230000
8.511000 5.235000
8.514000 5.240000
8.517000 5.225000
8.519000 5.225000
8.522000 5.220000
8.525000 5.220000
8.528000 5.230000
8.531000 5.235000
8.533000 5.230000
8.536000 5.230000
8.539000 5.220000
8.542000 5.210000
8.544000 5.230000
8.547000 5.230000
8.550000 5.220000
8.553000 5.220000
8.556000 5.200000
8.558000 5.185000
8.561000 5.205000
8.564000 5.220000
8.567000 5.230000
8.569000 5.225000
8.572000 5.220000
8.575000 5.210000
8.578000 5.195000
8.581000 5.205000
8.583000 5.210000
8.586000 5.210000
8.589000 5.200000
8.592000 5.190000
8.594000 5.205000
8.597000 5.210000
8.600000 5.200000
8.603000 5.185000
8.606000 5.170000
8.608000 5.180000
8.611000 5.195000
8.614000 5.205000
8.617000 5.195000
8.619000 5.185000
8.622000 5.170000
8.625000 5.165000
8.628000 5.175000
8.631000 5.200000
8.633000 5.190000
8.636000 5.185000
8.639000 5.190000
8.642000 5.185000
8.644000 5.190000
8.647000 5.195000
8.650000 5.175000
8.653000 5.165000
8.656000 5.170000
8.658000 5.175000
8.661000 5.170000
8.664000 5.180000
8.667000 5.165000
8.669000 5.175000
8.672000 5.170000
8.675000 5.165000
8.678000 5.160000
8.681000 5.190000
8.683000 5.180000
8.686000 5.185000
8.689000 5.170000
8.692000 5.165000
8.694000 5.195000
8.697000 5.210000
8.700000 5.185000
8.703000 5.160000
8.706000 5.155000
8.708000 5.165000
8.711000 5.170000
8.714000 5.180000
8.717000 5.170000
8.719000 5.175000
8.722000 5.170000
8.725000 5.160000
8.728000 5.175000
8.731000 5.200000
8.733000 5.215000
8.736000 5.215000
8.739000 5.215000
8.742000 5.215000
8.744000 5.235000
8.747000 5.265000
8.750000 5.265000
8.753000 5.275000
8.756000 5.270000
8.758000 5.255000
8.761000 5.245000
8.764000 5.225000
8.767000 5.220000
8.769000 5.215000
8.772000 5.205000
8.775000 5.195000
8.778000 5.190000
8.781000 5.200000
8.783000 5.190000
8.786000 5.200000
8.789000 5.195000
8.792000 5.200000
8.794000 5.210000
8.797000 5.200000
8.800000 5.195000
8.803000 5.185000
8.806000 5.170000
8.808000 5.165000
8.811000 5.170000
8.814000 5.150000
8.817000 5.135000
8.819000 5.135000
8.822000 5.105000
8.825000 5.120000
8.828000 5.135000
8.831000 5.145000
8.833000 5.140000
8.836000 5.135000
8.839000 5.135000
8.842000 5.125000
8.844000 5.130000
8.847000 5.135000
8.850000 5.125000
8.853000 5.135000
8.856000 5.110000
8.858000 5.105000
8.861000 5.120000
8.864000 5.130000
8.867000 5.120000
8.869000 5.115000
8.872000 5.110000
8.875000 5.115000
8.878000 5.135000
8.881000 5.130000
8.883000 5.110000
8.886000 5.090000
8.889000 5.090000
8.892000 5.090000
8.894000 5.100000
8.897000 5.110000
8.900000 5.115000
8.903000 5.125000
8.906000 5.115000
8.908000 5.110000
8.911000 5.095000
8.914000 5.120000
8.917000 5.115000
8.919000 5.060000
8.922000 5.010000
8.925000 4.935000
8.928000 4.845000
8.931000 4.740000
8.933000 4.615000
8.936000 4.445000
8.939000 4.200000
8.942000 3.905000
8.944000 3.660000
8.947000 3.545000
8.950000 3.520000
8.953000 3.560000
8.956000 3.610000
8.958000 3.650000
8.961000 3.705000
8.964000 3.770000
8.967000 3.820000
8.969000 3.845000
8.972000 3.870000
8.975000 3.885000
8.978000 3.935000
8.981000 4.000000
8.983000 4.055000
8.986000 4.115000
8.989000 4.160000
8.992000 4.205000
8.994000 4.265000
8.997000 4.330000
9.000000 4.415000
9.003000 4.510000
9.006000 4.595000
9.008000 4.675000
9.011000 4.755000
9.014000 4.850000
9.017000 4.930000
9.019000 4.995000
9.022000 5.040000
9.025000 5.100000
9.028000 5.175000
9.031000 5.250000
9.033000 5.295000
9.036000 5.305000
9.039000 5.315000
9.042000 5.325000
9.044000 5.350000
9.047000 5.365000
9.050000 5.375000
9.053000 5.395000
9.056000 5.375000
9.058000 5.370000
9.061000 5.385000
9.064000 5.420000
9.067000 5.420000
9.069000 5.420000
9.072000 5.405000
9.075000 5.410000
9.078000 5.435000
9.081000 5.450000
9.083000 5.445000
9.086000 5.435000
9.089000 5.440000
9.092000 5.445000
9.094000 5.460000
9.097000 5.445000
9.100000 5.425000
9.103000 5.440000
9.106000 5.440000
9.108000 5.455000
9.111000 5.460000
9.114000 5.475000
9.117000 5.470000
9.119000 5.465000
9.122000 5.465000
9.125000 5.470000
9.128000 5.475000
9.131000 5.465000
9.133000 5.480000
9.136000 5.480000
9.139000 5.480000
9.142000 5.470000
9.144000 5.475000
9.147000 5.495000
9.150000 5.475000
9.153000 5.465000
9.156000 5.465000
9.158000 5.470000
9.161000 5.480000
9.164000 5.480000
9.167000 5.475000
9.169000 5.480000
9.172000 5.485000
9.175000 5.480000
9.178000 5.495000
9.181000 5.500000
9.183000 5.480000
9.186000 5.475000
9.189000 5.475000
9.192000 5.480000
9.194000 5.485000
9.197000 5.475000
9.200000 5.460000
9.203000 5.455000
9.206000 5.450000
9.208000 5.450000
9.211000 5.440000
9.214000 5.445000
9.217000 5.445000
9.219000 5.435000
9.222000 5.425000
9.225000 5.405000
9.228000 5.420000
9.231000 5.435000
9.233000 5.420000
9.236000 5.410000
9.239000 5.390000
9.242000 5.375000
9.244000 5.370000
9.247000 5.375000
9.250000 5.365000
9.253000 5.330000
9.256000 5.310000
9.258000 5.295000
9.261000 5.305000
9.264000 5.305000
9.267000 5.285000
9.269000 5.275000
9.272000 5.250000
9.275000 5.240000
9.278000 5.240000
9.281000 5.235000
9.283000 5.220000
9.286000 5.220000
9.289000 5.205000
9.292000 5.205000
9.294000 5.205000
9.297000 5.210000
9.300000 5.205000
9.303000 5.190000
9.306000 5.180000
9.308000 5.160000
9.311000 5.165000
9.314000 5.185000
9.317000 5.190000
9.319000 5.185000
9.322000 5.160000
9.325000 5.165000
9.328000 5.185000
9.331000 5.195000
9.333000 5.190000
9.336000 5.180000
9.339000 5.165000
9.342000 5.170000
9.344000 5.185000
9.347000 5.190000
9.350000 5.200000
9.353000 5.185000
9.356000 5.165000
9.358000 5.165000
9.361000 5.185000
9.364000 5.205000
9.367000 5.205000
9.369000 5.205000
9.372000 5.190000
9.375000 5.200000
9.378000 5.205000
9.381000 5.215000
9.383000 5.205000
9.386000 5.210000
9.389000 5.210000
9.392000 5.210000
9.394000 5.220000
9.397000 5.220000
9.400000 5.220000
9.403000 5.220000
9.406000 5.215000
9.408000 5.220000
9.411000 5.235000
9.414000 5.250000
9.417000 5.240000
9.419000 5.245000
9.422000 5.235000
9.425000 5.245000
9.428000 5.240000
9.431000 5.245000
9.433000 5.245000
9.436000 5.225000
9.439000 5.205000
9.442000 5.210000
9.444000 5.230000
9.447000 5.245000
9.450000 5.240000
9.453000 5.235000
9.456000 5.225000
9.458000 5.215000
9.461000 5.235000
9.464000 5.240000
9.467000 5.235000
9.469000 5.235000
9.472000 5.225000
9.475000 5.220000
9.478000 5.220000
9.481000 5.230000
9.483000 5.225000
9.486000 5.205000
9.489000 5.200000
9.492000 5.200000
9.494000 5.205000
9.497000 5.225000
9.500000 5.200000
9.503000 5.190000
9.506000 5.190000
9.508000 5.190000
9.511000 5.190000
9.514000 5.215000
9.517000 5.195000
9.519000 5.205000
9.522000 5.205000
9.525000 5.190000
9.528000 5.180000
9.531000 5.170000
9.533000 5.175000
9.536000 5.175000
9.539000 5.165000
9.542000 5.160000
9.544000 5.170000
9.547000 5.175000
9.550000 5.175000
9.553000 5.170000
9.556000 5.170000
9.558000 5.170000
9.561000 5.195000
9.564000 5.195000
9.567000 5.185000
9.569000 5.155000
9.572000 5.170000
9.575000 5.175000
9.578000 5.180000
9.581000 5.195000
9.583000 5.190000
9.586000 5.190000
9.589000 5.180000
9.592000 5.165000
9.594000 5.175000
9.597000 5.180000
9.600000 5.155000
9.603000 5.155000
9.606000 5.160000
9.608000 5.155000
9.611000 5.170000
9.614000 5.170000
9.617000 5.165000
9.619000 5.165000
9.622000 5.155000
9.625000 5.155000
9.628000 5.180000
9.631000 5.195000
9.633000 5.190000
9.636000 5.175000
9.639000 5.155000
9.642000 5.150000
9.644000 5.160000
9.647000 5.165000
9.650000 5.160000
9.653000 5.160000
9.656000 5.150000
9.658000 5.150000
9.661000 5.160000
9.664000 5.175000
9.667000 5.170000
9.669000 5.160000
9.672000 5.145000
9.675000 5.145000
9.678000 5.160000
9.681000 5.180000
9.683000 5.175000
9.686000 5.160000
9.689000 5.145000
9.692000 5.140000
9.694000 5.160000
9.697000 5.165000
9.700000 5.170000
9.703000 5.155000
9.706000 5.160000
9.708000 5.175000
9.711000 5.180000
9.714000 5.200000
9.717000 5.215000
9.719000 5.205000
9.722000 5.215000
9.725000 5.225000
9.728000 5.245000
9.731000 5.265000
9.733000 5.275000
9.736000 5.270000
9.739000 5.245000
9.742000 5.235000
9.744000 5.220000
9.747000 5.225000
9.750000 5.215000
9.753000 5.210000
9.756000 5.195000
9.758000 5.185000
9.761000 5.185000
9.764000 5.185000
9.767000 5.190000
9.769000 5.180000
9.772000 5.185000
9.775000 5.180000
9.778000 5.185000
9.781000 5.190000
9.783000 5.180000
9.786000 5.175000
9.789000 5.160000
9.792000 5.170000
9.794000 5.155000
9.797000 5.160000
9.800000 5.135000
9.803000 5.145000
9.806000 5.125000
9.808000 5.125000
9.811000 5.150000
9.814000 5.150000
9.817000 5.145000
9.819000 5.110000
9.822000 5.110000
9.825000 5.115000
9.828000 5.135000
9.831000 5.130000
9.833000 5.115000
9.836000 5.105000
9.839000 5.100000
9.842000 5.110000
9.844000 5.125000
9.847000 5.135000
9.850000 5.135000
9.853000 5.135000
9.856000 5.120000
9.858000 5.110000
9.861000 5.115000
9.864000 5.125000
9.867000 5.130000
9.869000 5.115000
9.872000 5.115000
9.875000 5.110000
9.878000 5.115000
9.881000 5.125000
9.883000 5.110000
9.886000 5.110000
9.889000 5.095000
9.892000 5.110000
9.894000 5.140000
9.897000 5.150000
9.900000 5.135000
9.903000 5.105000
9.906000 5.040000
9.908000 4.955000
9.911000 4.865000
9.914000 4.780000
9.917000 4.645000
9.919000 4.435000
9.922000 4.190000
9.925000 3.930000
9.928000 3.730000
9.931000 3.650000
9.933000 3.630000
9.936000 3.665000
9.939000 3.700000
9.942000 3.740000
9.944000 3.785000
9.947000 3.850000
9.950000 3.880000
9.953000 3.900000
9.956000 3.930000
9.958000 3.955000
9.961000 4.000000
9.964000 4.070000
9.967000 4.120000
9.969000 4.165000
9.972000 4.205000
9.975000 4.255000
9.978000 4.300000
9.981000 4.350000
9.983000 4.395000
9.986000 4.490000
9.989000 4.590000
9.992000 4.695000
9.994000 4.765000
9.997000 4.840000
10.000000 4.900000
10.003000 4.970000
10.006000 5.020000
10.008000 5.090000
10.011000 5.145000
10.014000 5.215000
10.017000 5.250000
10.019000 5.300000
10.022000 5.315000
10.025000 5.320000
10.028000 5.350000
10.031000 5.375000
10.033000 5.370000
10.036000 5.385000
10.039000 5.380000
10.042000 5.395000
10.044000 5.405000
10.047000 5.410000
10.050000 5.420000
10.053000 5.430000
10.056000 5.420000
10.058000 5.440000
10.061000 5.440000
10.064000 5.435000
10.067000 5.445000
10.069000 5.445000
10.072000 5.450000
10.075000 5.460000
10.078000 5.460000
10.081000 5.475000
10.083000 5.455000
10.086000 5.460000
10.089000 5.475000
10.092000 5.465000
10.094000 5.485000
10.097000 5.495000
10.100000 5.490000
10.103000 5.495000
10.106000 5.490000
10.108000 5.470000
10.111000 5.505000
10.114000 5.510000
10.117000 5.500000
10.119000 5.500000
10.122000 5.495000
10.125000 5.495000
10.128000 5.510000
10.131000 5.525000
10.133000 5.530000
10.136000 5.530000
10.139000 5.515000
10.142000 5.525000
10.144000 5.535000
10.147000 5.530000
10.150000 5.510000
10.153000 5.500000
10.156000 5.495000
10.158000 5.520000
10.161000 5.510000
10.164000 5.535000
10.167000 5.520000
10.169000 5.510000
10.172000 5.495000
10.175000 5.500000
10.178000 5.510000
10.181000 5.515000
10.183000 5.510000
10.186000 5.510000
10.189000 5.490000
10.192000 5.495000
10.194000 5.500000
10.197000 5.510000
10.200000 5.490000
10.203000 5.475000
10.206000 5.465000
10.208000 5.440000
10.211000 5.455000
10.214000 5.450000
10.217000 5.440000
10.219000 5.430000
10.222000 5.415000
10.225000 5.405000
10.228000 5.405000
10.231000 5.395000
10.233000 5.375000
10.236000 5.360000
10.239000 5.335000
10.242000 5.330000
10.244000 5.330000
10.247000 5.325000
10.250000 5.315000
10.253000 5.295000
10.256000 5.280000
10.258000 5.255000
10.261000 5.260000
10.264000 5.255000
10.267000 5.255000
10.269000 5.235000
10.272000 5.215000
10.275000 5.220000
10.278000 5.210000
10.281000 5.230000
10.283000 5.205000
10.286000 5.215000
10.289000 5.205000
10.292000 5.200000
10.294000 5.205000
10.297000 5.205000
10.300000 5.210000
10.303000 5.195000
10.306000 5.185000
10.308000 5.185000
10.311000 5.200000
10.314000 5.220000
10.317000 5.220000
10.319000 5.210000
10.322000 5.190000
10.325000 5.195000
10.328000 5.215000
10.331000 5.220000
10.333000 5.220000
10.336000 5.215000
10.339000 5.205000
10.342000 5.220000
10.344000 5.235000
10.347000 5.240000
10.350000 5.245000
10.353000 5.240000
10.356000 5.240000
10.358000 5.235000
10.361000 5.240000
10.364000 5.250000
10.367000 5.250000
10.369000 5.230000
10.372000 5.235000
10.375000 5.235000
10.378000 5.255000
10.381000 5.260000
10.383000 5.260000
10.386000 5.240000
10.389000 5.260000
10.392000 5.270000
10.394000 5.285000
10.397000 5.300000
10.400000 5.285000
10.403000 5.270000
10.406000 5.255000
10.408000 5.255000
10.411000 5.265000
10.414000 5.270000
10.417000 5.250000
10.419000 5.255000
10.422000 5.245000
10.425000 5.245000
10.428000 5.265000
10.431000 5.265000
10.433000 5.255000
10.436000 5.240000
10.439000 5.250000
10.442000 5.255000
10.444000 5.255000
10.447000 5.255000
10.450000 5.255000
10.453000 5.245000
10.456000 5.235000
10.458000 5.230000
10.461000 5.235000
10.464000 5.245000
10.467000 5.240000
10.469000 5.220000
10.472000 5.220000
10.475000 5.205000
10.478000 5.210000
10.481000 5.235000
10.483000 5.220000
10.486000 5.215000
10.489000 5.205000
10.492000 5.205000
10.494000 5.220000
10.497000 5.235000
10.500000 5.240000
10.503000 5.220000
10.506000 5.230000
10.508000 5.200000
10.511000 5.200000
10.514000 5.210000
10.517000 5.210000
10.519000 5.210000
10.522000 5.200000
10.525000 5.195000
10.528000 5.200000
10.531000 5.215000
10.533000 5.205000
10.536000 5.210000
10.539000 5.200000
10.542000 5.195000
10.544000 5.220000
10.547000 5.225000
10.550000 5.215000
10.553000 5.210000
10.556000 5.200000
10.558000 5.200000
10.561000 5.215000
10.564000 5.215000
10.567000 5.215000
10.569000 5.200000
10.572000 5.190000
10.575000 5.175000
10.578000 5.200000
10.581000 5.215000
10.583000 5.210000
10.586000 5.195000
10.589000 5.180000
10.592000 5.185000
10.594000 5.185000
10.597000 5.205000
10.600000 5.200000
10.603000 5.200000
10.606000 5.195000
10.608000 5.180000
10.611000 5.195000
10.614000 5.210000
10.617000 5.200000
10.619000 5.195000
10.622000 5.185000
10.625000 5.185000
10.628000 5.190000
10.631000 5.210000
10.633000 5.205000
10.636000 5.195000
10.639000 5.200000
10.642000 5.200000
10.644000 5.220000
10.647000 5.240000
10.650000 5.250000
10.653000 5.255000
10.656000 5.250000
10.658000 5.255000
10.661000 5.290000
10.664000 5.295000
10.667000 5.295000
10.669000 5.290000
10.672000 5.285000
10.675000 5.265000
10.678000 5.250000
10.681000 5.250000
10.683000 5.240000
10.686000 5.230000
10.689000 5.220000
10.692000 5.210000
10.694000 5.220000
10.697000 5.235000
10.700000 5.230000
10.703000 5.225000
10.706000 5.225000
10.708000 5.220000
10.711000 5.210000
10.714000 5.220000
10.717000 5.210000
10.719000 5.205000
10.722000 5.200000
10.725000 5.185000
10.728000 5.170000
10.731000 5.175000
10.733000 5.165000
10.736000 5.155000
10.739000 5.145000
10.742000 5.155000
10.744000 5.160000
10.747000 5.180000
10.750000 5.170000
10.753000 5.165000
10.756000 5.140000
10.758000 5.145000
10.761000 5.160000
10.764000 5.175000
10.767000 5.165000
10.769000 5.155000
10.772000 5.155000
10.775000 5.140000
10.778000 5.160000
10.781000 5.155000
10.783000 5.160000
10.786000 5.145000
10.789000 5.135000
10.792000 5.150000
10.794000 5.140000
10.797000 5.160000
10.800000 5.150000
10.803000 5.135000
10.806000 5.125000
10.808000 5.135000
10.811000 5.140000
10.814000 5.155000
10.817000 5.145000
10.819000 5.145000
10.822000 5.150000
10.825000 5.165000
10.828000 5.165000
10.831000 5.145000
10.833000 5.060000
10.836000 4.960000
10.839000 4.855000
10.842000 4.695000
10.844000 4.540000
10.847000 4.345000
10.850000 4.050000
10.853000 3.755000
10.856000 3.565000
10.858000 3.525000
10.861000 3.575000
10.864000 3.650000
10.867000 3.705000
10.869000 3.745000
10.872000 3.785000
10.875000 3.840000
10.878000 3.895000
10.881000 3.930000
10.883000 3.955000
10.886000 3.970000
10.889000 4.000000
10.892000 4.075000
10.894000 4.160000
10.897000 4.230000
10.900000 4.275000
10.903000 4.330000
10.906000 4.410000
10.908000 4.520000
10.911000 4.635000
10.914000 4.725000
10.917000 4.810000
10.919000 4.890000
10.922000 4.960000
10.925000 5.030000
10.928000 5.130000
10.931000 5.195000
10.933000 5.250000
10.936000 5.305000
10.939000 5.335000
10.942000 5.360000
10.944000 5.390000
10.947000 5.425000
10.950000 5.415000
10.953000 5.415000
10.956000 5.425000
10.958000 5.425000
10.961000 5.450000
10.964000 5.470000
10.967000 5.480000
10.969000 5.475000
10.972000 5.485000
10.975000 5.485000
10.978000 5.495000
10.981000 5.500000
10.983000 5.490000
10.986000 5.510000
10.989000 5.520000
10.992000 5.525000
10.994000 5.540000
10.997000 5.530000
11.000000 5.520000
11.003000 5.525000
11.006000 5.515000
11.008000 5.525000
11.011000 5.540000
11.014000 5.545000
11.017000 5.550000
11.019000 5.545000
11.022000 5.540000
11.025000 5.560000
11.028000 5.570000
11.031000 5.580000
11.033000 5.575000
11.036000 5.575000
11.039000 5.570000
11.042000 5.575000
11.044000 5.585000
11.047000 5.600000
11.050000 5.580000
11.053000 5.570000
11.056000 5.570000
11.058000 5.570000
11.061000 5.580000
11.064000 5.595000
11.067000 5.600000
11.069000 5.585000
11.072000 5.570000
11.075000 5.580000
11.078000 5.590000
11.081000 5.595000
11.083000 5.590000
11.086000 5.580000
11.089000 5.565000
11.092000 5.575000
11.094000 5.570000
11.097000 5.575000
11.100000 5.560000
11.103000 5.550000
11.106000 5.535000
11.108000 5.530000
11.111000 5.535000
11.114000 5.535000
11.117000 5.530000
11.119000 5.520000
11.122000 5.490000
11.125000 5.480000
11.128000 5.480000
11.131000 5.480000
11.133000 5.465000
11.136000 5.450000
11.139000 5.425000
11.142000 5.420000
11.144000 5.400000
11.147000 5.380000
11.150000 5.375000
11.153000 5.365000
11.156000 5.350000
11.158000 5.340000
11.161000 5.330000
11.164000 5.325000
11.167000 5.310000
11.169000 5.285000
11.172000 5.275000
11.175000 5.280000
11.178000 5.285000
11.181000 5.285000
11.183000 5.290000
11.186000 5.255000
11.189000 5.235000
11.192000 5.240000
11.194000 5.250000
11.197000 5.250000
11.200000 5.245000
11.203000 5.240000
11.206000 5.240000
11.208000 5.245000
11.211000 5.255000
11.214000 5.260000
11.217000 5.260000
11.219000 5.250000
11.222000 5.245000
11.225000 5.255000
11.228000 5.255000
11.231000 5.280000
11.233000 5.280000
11.236000 5.285000
11.239000 5.265000
11.242000 5.270000
11.244000 5.265000
11.247000 5.280000
11.250000 5.285000
11.253000 5.290000
11.256000 5.280000
11.258000 5.275000
11.261000 5.280000
11.264000 5.295000
11.267000 5.300000
11.269000 5.290000
11.272000 5.295000
11.275000 5.285000
11.278000 5.305000
11.281000 5.330000
11.283000 5.335000
11.286000 5.330000
11.289000 5.305000
11.292000 5.295000
11.294000 5.295000
11.297000 5.315000
11.300000 5.305000
11.303000 5.315000
11.306000 5.300000
11.308000 5.295000
11.311000 5.295000
11.314000 5.305000
11.317000 5.315000
11.319000 5.305000
11.322000 5.310000
11.325000 5.305000
11.328000 5.295000
11.331000 5.315000
11.333000 5.310000
11.336000 5.305000
11.339000 5.290000
11.342000 5.285000
11.344000 5.275000
11.347000 5.245000
11.350000 5.200000
11.353000 5.160000
11.356000 5.115000
11.358000 5.085000
11.361000 5.055000
11.364000 5.040000
11.367000 5.035000
11.369000 5.005000
11.372000 4.990000
11.375000 5.000000
11.378000 5.020000
11.381000 5.055000
11.383000 5.080000
11.386000 5.110000
11.389000 5.155000
11.392000 5.200000
11.394000 5.265000
11.397000 5.285000
11.400000 5.315000
11.403000 5.340000
11.406000 5.385000
11.408000 5.460000
11.411000 5.570000
11.414000 5.660000
11.417000 5.740000
11.419000 5.800000
11.422000 5.830000
11.425000 5.865000
11.428000 5.935000
11.431000 5.965000
11.433000 5.970000
11.436000 5.935000
11.439000 5.865000
11.442000 5.785000
11.444000 5.745000
11.447000 5.675000
11.450000 5.605000
11.453000 5.515000
11.456000 5.405000
11.458000 5.300000
11.461000 5.275000
11.464000 5.270000
11.467000 5.265000
11.469000 5.240000
11.472000 5.220000
11.475000 5.215000
11.478000 5.215000
11.481000 5.235000
11.483000 5.210000
11.486000 5.200000
11.489000 5.180000
11.492000 5.165000
11.494000 5.170000
11.497000 5.190000
11.500000 5.185000
11.503000 5.165000
11.506000 5.160000
11.508000 5.145000
11.511000 5.145000
11.514000 5.155000
11.517000 5.150000
11.519000 5.130000
11.522000 5.115000
11.525000 5.110000
11.528000 5.120000
11.531000 5.120000
11.533000 5.110000
11.536000 5.105000
11.539000 5.100000
11.542000 5.100000
11.544000 5.100000
11.547000 5.100000
11.550000 5.085000
11.553000 5.075000
11.556000 5.065000
11.558000 5.080000
11.561000 5.090000
11.564000 5.075000
11.567000 5.080000
11.569000 5.090000
11.572000 5.080000
11.575000 5.070000
11.578000 5.080000
11.581000 5.090000
11.583000 5.090000
11.586000 5.080000
11.589000 5.060000
11.592000 5.075000
11.594000 5.075000
11.597000 5.055000
11.600000 5.035000
11.603000 5.010000
11.606000 4.990000
11.608000 4.975000
11.611000 4.955000
11.614000 4.950000
11.617000 4.925000
11.619000 4.900000
11.622000 4.880000
11.625000 4.890000
11.628000 4.885000
11.631000 4.895000
11.633000 4.870000
11.636000 4.850000
11.639000 4.820000
11.642000 4.810000
11.644000 4.825000
11.647000 4.815000
11.650000 4.805000
11.653000 4.780000
11.656000 4.770000
11.658000 4.765000
11.661000 4.775000
11.664000 4.790000
11.667000 4.775000
11.669000 4.790000
11.672000 4.770000
11.675000 4.790000
11.678000 4.790000
11.681000 4.785000
11.683000 4.815000
11.686000 4.820000
11.689000 4.815000
11.692000 4.850000
11.694000 4.860000
11.697000 4.880000
11.700000 4.895000
11.703000 4.905000
11.706000 4.915000
11.708000 4.955000
11.711000 4.985000
11.714000 5.015000
11.717000 5.025000
11.719000 5.040000
11.722000 5.050000
11.725000 5.070000
11.728000 5.090000
11.731000 5.105000
11.733000 5.125000
11.736000 5.120000
11.739000 5.130000
11.742000 5.160000
11.744000 5.180000
11.747000 5.190000
11.750000 5.210000
11.753000 5.220000
11.756000 5.210000
11.758000 5.220000
11.761000 5.230000
11.764000 5.240000
11.767000 5.250000
11.769000 5.255000
11.772000 5.255000
11.775000 5.265000
11.778000 5.265000
11.781000 5.250000
11.783000 5.260000
11.786000 5.235000
11.789000 5.245000
11.792000 5.245000
11.794000 5.275000
11.797000 5.270000
11.800000 5.285000
11.803000 5.260000
11.806000 5.265000
11.808000 5.280000
11.811000 5.275000
11.814000 5.290000
11.817000 5.295000
11.819000 5.290000
11.822000 5.280000
11.825000 5.270000
11.828000 5.285000
11.831000 5.280000
11.833000 5.290000
11.836000 5.285000
11.839000 5.270000
11.842000 5.270000
11.844000 5.285000
11.847000 5.295000
11.850000 5.300000
11.853000 5.295000
11.856000 5.265000
11.858000 5.285000
11.861000 5.290000
11.864000 5.300000
11.867000 5.300000
11.869000 5.300000
11.872000 5.295000
11.875000 5.285000
11.878000 5.290000
11.881000 5.295000
11.883000 5.300000
11.886000 5.285000
11.889000 5.260000
11.892000 5.265000
11.894000 5.265000
11.897000 5.280000
11.900000 5.285000
11.903000 5.285000
11.906000 5.280000
11.908000 5.275000
11.911000 5.270000
11.914000 5.295000
11.917000 5.290000
11.919000 5.290000
11.922000 5.280000
11.925000 5.285000
11.928000 5.305000
11.931000 5.300000
11.933000 5.285000
11.936000 5.295000
11.939000 5.275000
11.942000 5.285000
11.944000 5.295000
11.947000 5.285000
11.950000 5.285000
11.953000 5.280000
11.956000 5.275000
11.958000 5.275000
11.961000 5.280000
11.964000 5.280000
11.967000 5.290000
11.969000 5.275000
11.972000 5.270000
11.975000 5.270000
11.978000 5.265000
11.981000 5.275000
11.983000 5.290000
11.986000 5.290000
11.989000 5.280000
11.992000 5.280000
11.994000 5.280000
11.997000 5.295000
12.000000 5.285000
12.003000 5.275000
12.006000 5.250000
12.008000 5.260000
12.011000 5.265000
12.014000 5.270000
12.017000 5.275000
12.019000 5.270000
12.022000 5.260000
12.025000 5.260000
12.028000 5.275000
12.031000 5.270000
12.033000 5.285000
12.036000 5.275000
12.039000 5.275000
12.042000 5.275000
12.044000 5.270000
12.047000 5.275000
12.050000 5.265000
12.053000 5.255000
12.056000 5.260000
12.058000 5.260000
12.061000 5.275000
12.064000 5.270000
12.067000 5.280000
12.069000 5.280000
12.072000 5.270000
12.075000 5.265000
12.078000 5.285000
12.081000 5.290000
12.083000 5.280000
12.086000 5.270000
12.089000 5.270000
12.092000 5.280000
12.094000 5.295000
12.097000 5.300000
12.100000 5.295000
12.103000 5.295000
12.106000 5.275000
12.108000 5.285000
12.111000 5.300000
12.114000 5.305000
12.117000 5.290000
12.119000 5.270000
12.122000 5.265000
12.125000 5.270000
12.128000 5.275000
12.131000 5.290000
12.133000 5.290000
12.136000 5.285000
12.139000 5.285000
12.142000 5.280000
12.144000 5.280000
12.147000 5.285000
12.150000 5.295000
12.153000 5.285000
12.156000 5.280000
12.158000 5.270000
12.161000 5.290000
12.164000 5.295000
12.167000 5.290000
12.169000 5.285000
12.172000 5.275000
12.175000 5.285000
12.178000 5.290000
12.181000 5.290000
12.183000 5.285000
12.186000 5.280000
12.189000 5.270000
12.192000 5.290000
12.194000 5.285000
12.197000 5.310000
12.200000 5.295000
12.203000 5.265000
12.206000 5.275000
12.208000 5.285000
12.211000 5.300000
12.214000 5.300000
12.217000 5.295000
12.219000 5.290000
12.222000 5.285000
12.225000 5.280000
12.228000 5.295000
12.231000 5.300000
12.233000 5.300000
12.236000 5.285000
12.239000 5.280000
12.242000 5.275000
12.244000 5.285000
12.247000 5.300000
12.250000 5.300000
12.253000 5.300000
12.256000 5.275000
12.258000 5.290000
12.261000 5.285000
12.264000 5.300000
12.267000 5.300000
12.269000 5.295000
12.272000 5.290000
12.275000 5.295000
12.278000 5.295000
12.281000 5.300000
12.283000 5.300000
12.286000 5.290000
12.289000 5.270000
12.292000 5.285000
12.294000 5.285000
12.297000 5.270000
12.300000 5.275000
12.303000 5.260000
12.306000 5.255000
12.308000 5.260000
12.311000 5.280000
12.314000 5.280000
12.317000 5.270000
12.319000 5.270000
12.322000 5.255000
12.325000 5.270000
12.328000 5.280000
12.331000 5.285000
12.333000 5.280000
12.336000 5.265000
12.339000 5.250000
12.342000 5.255000
12.344000 5.265000
12.347000 5.265000
12.350000 5.255000
12.353000 5.260000
12.356000 5.255000
12.358000 5.265000
12.361000 5.265000
12.364000 5.250000
12.367000 5.265000
12.369000 5.255000
12.372000 5.255000
12.375000 5.255000
12.378000 5.265000
12.381000 5.275000
12.383000 5.290000
12.386000 5.260000
12.389000 5.270000
12.392000 5.265000
12.394000 5.270000
12.397000 5.260000
12.400000 5.245000
12.403000 5.250000
12.406000 5.235000
12.408000 5.245000
12.411000 5.250000
12.414000 5.255000
12.417000 5.250000
12.419000 5.245000
12.422000 5.250000
12.425000 5.255000
12.428000 5.265000
12.431000 5.270000
12.433000 5.265000
12.436000 5.265000
12.439000 5.235000
12.442000 5.240000
12.444000 5.275000
12.447000 5.260000
12.450000 5.260000
12.453000 5.245000
12.456000 5.225000
12.458000 5.240000
12.461000 5.240000
12.464000 5.255000
12.467000 5.255000
12.469000 5.245000
12.472000 5.245000
12.475000 5.245000
12.478000 5.270000
12.481000 5.265000
12.483000 5.245000
12.486000 5.225000
12.489000 5.225000
12.492000 5.235000
12.494000 5.260000
12.497000 5.255000
12.500000 5.235000
12.503000 5.240000
12.506000 5.230000
12.508000 5.230000
12.511000 5.245000
12.514000 5.250000
12.517000 5.250000
12.519000 5.250000
12.522000 5.220000
12.525000 5.225000
12.528000 5.230000
12.531000 5.260000
12.533000 5.270000
12.536000 5.275000
12.539000 5.260000
12.542000 5.275000
12.544000 5.300000
12.547000 5.325000
12.550000 5.335000
12.553000 5.330000
12.556000 5.325000
12.558000 5.320000
12.561000 5.315000
12.564000 5.310000
12.567000 5.305000
12.569000 5.275000
12.572000 5.235000
12.575000 5.235000
12.578000 5.230000
12.581000 5.250000
12.583000 5.250000
12.586000 5.240000
12.589000 5.245000
12.592000 5.260000
12.594000 5.275000
12.597000 5.265000
12.600000 5.265000
12.603000 5.250000
12.606000 5.235000
12.608000 5.235000
12.611000 5.250000
12.614000 5.225000
12.617000 5.210000
12.619000 5.195000
12.622000 5.185000
12.625000 5.175000
12.628000 5.185000
12.631000 5.185000
12.633000 5.175000
12.636000 5.165000
12.639000 5.165000
12.642000 5.160000
12.644000 5.160000
12.647000 5.180000
12.650000 5.180000
12.653000 5.190000
12.656000 5.180000
12.658000 5.170000
12.661000 5.155000
12.664000 5.155000
12.667000 5.145000
12.669000 5.140000
12.672000 5.140000
12.675000 5.150000
12.678000 5.155000
12.681000 5.160000
12.683000 5.155000
12.686000 5.150000
12.689000 5.125000
12.692000 5.135000
12.694000 5.150000
12.697000 5.170000
12.700000 5.180000
12.703000 5.165000
12.706000 5.135000
12.708000 5.095000
12.711000 5.035000
12.714000 4.960000
12.717000 4.850000
12.719000 4.730000
12.722000 4.545000
12.725000 4.315000
12.728000 4.040000
12.731000 3.805000
12.733000 3.655000
12.736000 3.635000
12.739000 3.655000
12.742000 3.720000
12.744000 3.770000
12.747000 3.825000
12.750000 3.875000
12.753000 3.905000
12.756000 3.920000
12.758000 3.940000
12.761000 3.975000
12.764000 4.030000
12.767000 4.080000
12.769000 4.115000
12.772000 4.155000
12.775000 4.195000
12.778000 4.265000
12.781000 4.305000
12.783000 4.360000
12.786000 4.405000
12.789000 4.455000
12.792000 4.555000
12.794000 4.655000
12.797000 4.735000
12.800000 4.795000
12.803000 4.870000
12.806000 4.925000
12.808000 5.005000
12.811000 5.070000
12.814000 5.145000
12.817000 5.190000
12.819000 5.230000
12.822000 5.285000
12.825000 5.335000
12.828000 5.375000
12.831000 5.405000
12.833000 5.420000
12.836000 5.425000
12.839000 5.430000
12.842000 5.440000
12.844000 5.455000
12.847000 5.470000
12.850000 5.470000
12.853000 5.465000
12.856000 5.465000
12.858000 5.485000
12.861000 5.490000
12.864000 5.515000
12.867000 5.505000
12.869000 5.520000
12.872000 5.510000
12.875000 5.525000
12.878000 5.525000
12.881000 5.530000
12.883000 5.540000
12.886000 5.515000
12.889000 5.525000
12.892000 5.535000
12.894000 5.545000
12.897000 5.540000
12.900000 5.540000
12.903000 5.535000
12.906000 5.530000
12.908000 5.540000
12.911000 5.545000
12.914000 5.550000
12.917000 5.545000
12.919000 5.535000
12.922000 5.530000
12.925000 5.525000
12.928000 5.560000
12.931000 5.565000
12.933000 5.550000
12.936000 5.540000
12.939000 5.540000
12.942000 5.555000
12.944000 5.565000
12.947000 5.575000
12.950000 5.565000
12.953000 5.535000
12.956000 5.520000
12.958000 5.550000
12.961000 5.545000
12.964000 5.560000
12.967000 5.560000
12.969000 5.545000
12.972000 5.545000
12.975000 5.540000
12.978000 5.560000
12.981000 5.550000
12.983000 5.545000
12.986000 5.525000
12.989000 5.525000
12.992000 5.530000
12.994000 5.545000
12.997000 5.545000
13.000000 5.540000
13.003000 5.535000
13.006000 5.515000
13.008000 5.525000
13.011000 5.535000
13.014000 5.535000
13.017000 5.525000
13.019000 5.515000
13.022000 5.500000
13.025000 5.500000
13.028000 5.490000
13.031000 5.505000
13.033000 5.490000
13.036000 5.495000
13.039000 5.470000
13.042000 5.475000
13.044000 5.480000
13.047000 5.465000
13.050000 5.465000
13.053000 5.440000
13.056000 5.435000
13.058000 5.440000
13.061000 5.445000
13.064000 5.430000
13.067000 5.415000
13.069000 5.415000
13.072000 5.385000
13.075000 5.385000
13.078000 5.385000
13.081000 5.375000
13.083000 5.370000
13.086000 5.335000
13.089000 5.325000
13.092000 5.325000
13.094000 5.315000
13.097000 5.325000
13.100000 5.310000
13.103000 5.290000
13.106000 5.275000
13.108000 5.285000
13.111000 5.285000
13.114000 5.300000
13.117000 5.280000
13.119000 5.260000
13.122000 5.255000
13.125000 5.240000
13.128000 5.250000
13.131000 5.255000
13.133000 5.250000
13.136000 5.235000
13.139000 5.230000
13.142000 5.235000
13.144000 5.240000
13.147000 5.245000
13.150000 5.240000
13.153000 5.235000
13.156000 5.235000
13.158000 5.255000
13.161000 5.255000
13.164000 5.265000
13.167000 5.255000
13.169000 5.260000
13.172000 5.255000
13.175000 5.275000
13.178000 5.275000
13.181000 5.280000
13.183000 5.275000
13.186000 5.275000
13.189000 5.275000
13.192000 5.280000
13.194000 5.290000
13.197000 5.315000
13.200000 5.310000
13.203000 5.300000
13.206000 5.285000
13.208000 5.300000
13.211000 5.310000
13.214000 5.330000
13.217000 5.330000
13.219000 5.330000
13.222000 5.320000
13.225000 5.325000
13.228000 5.340000
13.231000 5.355000
13.233000 5.345000
13.236000 5.345000
13.239000 5.340000
13.242000 5.340000
13.244000 5.340000
13.247000 5.355000
13.250000 5.355000
13.253000 5.335000
13.256000 5.325000
13.258000 5.345000
13.261000 5.355000
13.264000 5.355000
13.267000 5.360000
13.269000 5.345000
13.272000 5.335000
13.275000 5.345000
13.278000 5.345000
13.281000 5.360000
13.283000 5.345000
13.286000 5.340000
13.289000 5.335000
13.292000 5.330000
13.294000 5.340000
13.297000 5.345000
13.300000 5.335000
13.303000 5.330000
13.306000 5.295000
13.308000 5.305000
13.311000 5.315000
13.314000 5.320000
13.317000 5.315000
13.319000 5.300000
13.322000 5.295000
13.325000 5.290000
13.328000 5.300000
13.331000 5.295000
13.333000 5.285000
13.336000 5.285000
13.339000 5.290000
13.342000 5.290000
13.344000 5.290000
13.347000 5.290000
13.350000 5.280000
13.353000 5.280000
13.356000 5.260000
13.358000 5.275000
13.361000 5.290000
13.364000 5.280000
13.367000 5.280000
13.369000 5.270000
13.372000 5.265000
13.375000 5.270000
13.378000 5.275000
13.381000 5.280000
13.383000 5.280000
13.386000 5.260000
13.389000 5.245000
13.392000 5.255000
13.394000 5.265000
13.397000 5.280000
13.400000 5.280000
13.403000 5.265000
13.406000 5.280000
13.408000 5.275000
13.411000 5.285000
13.414000 5.265000
13.417000 5.270000
13.419000 5.250000
13.422000 5.255000
13.425000 5.260000
13.428000 5.265000
13.431000 5.270000
13.433000 5.285000
13.436000 5.260000
13.439000 5.245000
13.442000 5.250000
13.444000 5.260000
13.447000 5.260000
13.450000 5.260000
13.453000 5.245000
13.456000 5.230000
13.458000 5.240000
13.461000 5.255000
13.464000 5.270000
13.467000 5.265000
13.469000 5.235000
13.472000 5.235000
13.475000 5.225000
13.478000 5.240000
13.481000 5.240000
13.483000 5.245000
13.486000 5.235000
13.489000 5.225000
13.492000 5.220000
13.494000 5.240000
13.497000 5.235000
13.500000 5.235000
13.503000 5.235000
13.506000 5.235000
13.508000 5.230000
13.511000 5.245000
13.514000 5.250000
13.517000 5.240000
13.519000 5.230000
13.522000 5.225000
13.525000 5.235000
13.528000 5.255000
13.531000 5.250000
13.533000 5.260000
13.536000 5.260000
13.539000 5.260000
13.542000 5.280000
13.544000 5.300000
13.547000 5.320000
13.550000 5.330000
13.553000 5.320000
13.556000 5.305000
13.558000 5.315000
13.561000 5.310000
13.564000 5.300000
13.567000 5.295000
13.569000 5.275000
13.572000 5.265000
13.575000 5.260000
13.578000 5.255000
13.581000 5.250000
13.583000 5.235000
13.586000 5.230000
13.589000 5.225000
13.592000 5.250000
13.594000 5.250000
13.597000 5.255000
13.600000 5.255000
13.603000 5.240000
13.606000 5.230000
13.608000 5.235000
13.611000 5.240000
13.614000 5.245000
13.617000 5.230000
13.619000 5.215000
13.622000 5.195000
13.625000 5.190000
13.628000 5.200000
13.631000 5.210000
13.633000 5.200000
13.636000 5.190000
13.639000 5.185000
13.642000 5.190000
13.644000 5.205000
13.647000 5.200000
13.650000 5.185000
13.653000 5.185000
13.656000 5.170000
13.658000 5.180000
13.661000 5.185000
13.664000 5.205000
13.667000 5.190000
13.669000 5.175000
13.672000 5.170000
13.675000 5.185000
13.678000 5.180000
13.681000 5.195000
13.683000 5.195000
13.686000 5.185000
13.689000 5.160000
13.692000 5.175000
13.694000 5.185000
13.697000 5.190000
13.700000 5.180000
13.703000 5.160000
13.706000 5.155000
13.708000 5.155000
13.711000 5.170000
13.714000 5.180000
13.717000 5.175000
13.719000 5.175000
13.722000 5.165000
13.725000 5.160000
13.728000 5.155000
13.731000 5.095000
13.733000 5.015000
13.736000 4.915000
13.739000 4.795000
13.742000 4.675000
13.744000 4.505000
13.747000 4.285000
13.750000 3.995000
13.753000 3.715000
13.756000 3.560000
13.758000 3.535000
13.761000 3.585000
13.764000 3.635000
13.767000 3.670000
13.769000 3.710000
13.772000 3.750000
13.775000 3.800000
13.778000 3.850000
13.781000 3.870000
13.783000 3.890000
13.786000 3.905000
13.789000 3.935000
13.792000 3.995000
13.794000 4.045000
13.797000 4.115000
13.800000 4.160000
13.803000 4.200000
13.806000 4.240000
13.808000 4.305000
13.811000 4.380000
13.814000 4.475000
13.817000 4.580000
13.819000 4.665000
13.822000 4.740000
13.825000 4.825000
13.828000 4.905000
13.831000 5.000000
13.833000 5.060000
13.836000 5.115000
13.839000 5.165000
13.842000 5.220000
13.844000 5.300000
13.847000 5.345000
13.850000 5.390000
13.853000 5.385000
13.856000 5.400000
13.858000 5.415000
13.861000 5.445000
13.864000 5.455000
13.867000 5.465000
13.869000 5.465000
13.872000 5.465000
13.875000 5.470000
13.878000 5.485000
13.881000 5.495000
13.883000 5.490000
13.886000 5.485000
13.889000 5.490000
13.892000 5.495000
13.894000 5.515000
13.897000 5.520000
13.900000 5.530000
13.903000 5.510000
13.906000 5.520000
13.908000 5.530000
13.911000 5.545000
13.914000 5.545000
13.917000 5.555000
13.919000 5.540000
13.922000 5.545000
13.925000 5.555000
13.928000 5.560000
13.931000 5.560000
13.933000 5.550000
13.936000 5.545000
13.939000 5.540000
13.942000 5.545000
13.944000 5.560000
13.947000 5.570000
13.950000 5.570000
13.953000 5.550000
13.956000 5.545000
13.958000 5.560000
13.961000 5.570000
13.964000 5.570000
13.967000 5.585000
13.969000 5.580000
13.972000 5.560000
13.975000 5.580000
13.978000 5.580000
13.981000 5.600000
13.983000 5.595000
13.986000 5.585000
13.989000 5.575000
13.992000 5.585000
13.994000 5.590000
13.997000 5.590000
14.000000 5.585000
14.003000 5.585000
14.006000 5.575000
14.008000 5.590000
14.011000 5.580000
14.014000 5.585000
14.017000 5.585000
14.019000 5.580000
14.022000 5.565000
14.025000 5.570000
14.028000 5.570000
14.031000 5.580000
14.033000 5.575000
14.036000 5.575000
14.039000 5.560000
14.042000 5.570000
14.044000 5.570000
14.047000 5.580000
14.050000 5.570000
14.053000 5.550000
14.056000 5.525000
14.058000 5.525000
14.061000 5.530000
14.064000 5.530000
14.067000 5.515000
14.069000 5.495000
14.072000 5.480000
14.075000 5.480000
14.078000 5.495000
14.081000 5.495000
14.083000 5.465000
14.086000 5.450000
14.089000 5.435000
14.092000 5.430000
14.094000 5.430000
14.097000 5.430000
14.100000 5.420000
14.103000 5.390000
14.106000 5.370000
14.108000 5.365000
14.111000 5.355000
14.114000 5.360000
14.117000 5.340000
14.119000 5.315000
14.122000 5.285000
14.125000 5.290000
14.128000 5.305000
14.131000 5.295000
14.133000 5.290000
14.136000 5.270000
14.139000 5.260000
14.142000 5.270000
14.144000 5.285000
14.147000 5.280000
14.150000 5.275000
14.153000 5.265000
14.156000 5.255000
14.158000 5.255000
14.161000 5.285000
14.164000 5.270000
14.167000 5.280000
14.169000 5.260000
14.172000 5.255000
14.175000 5.265000
14.178000 5.260000
14.181000 5.270000
14.183000 5.275000
14.186000 5.260000
14.189000 5.265000
14.192000 5.270000
14.194000 5.280000
14.197000 5.300000
14.200000 5.285000
14.203000 5.290000
14.206000 5.285000
14.208000 5.295000
14.211000 5.300000
14.214000 5.315000
14.217000 5.305000
14.219000 5.300000
14.222000 5.305000
14.225000 5.310000
14.228000 5.320000
14.231000 5.325000
14.233000 5.320000
14.236000 5.315000
14.239000 5.310000
14.242000 5.315000
14.244000 5.335000
14.247000 5.345000
14.250000 5.340000
14.253000 5.320000
14.256000 5.315000
14.258000 5.335000
14.261000 5.345000
14.264000 5.350000
14.267000 5.340000
14.269000 5.330000
14.272000 5.325000
14.275000 5.340000
14.278000 5.345000
14.281000 5.350000
14.283000 5.340000
14.286000 5.325000
14.289000 5.325000
14.292000 5.320000
14.294000 5.320000
14.297000 5.340000
14.300000 5.330000
14.303000 5.330000
14.306000 5.315000
14.308000 5.325000
14.311000 5.325000
14.314000 5.320000
14.317000 5.330000
14.319000 5.315000
14.322000 5.315000
14.325000 5.310000
14.328000 5.320000
14.331000 5.320000
14.333000 5.305000
14.336000 5.300000
14.339000 5.290000
14.342000 5.290000
14.344000 5.295000
14.347000 5.305000
14.350000 5.295000
14.353000 5.280000
14.356000 5.270000
14.358000 5.275000
14.361000 5.285000
14.364000 5.285000
14.367000 5.295000
14.369000 5.285000
14.372000 5.270000
14.375000 5.285000
14.378000 5.300000
14.381000 5.290000
14.383000 5.295000
14.386000 5.275000
14.389000 5.265000
14.392000 5.260000
14.394000 5.265000
14.397000 5.265000
14.400000 5.260000
14.403000 5.265000
14.406000 5.255000
14.408000 5.265000
14.411000 5.275000
14.414000 5.295000
14.417000 5.280000
14.419000 5.265000
14.422000 5.270000
14.425000 5.270000
14.428000 5.285000
14.431000 5.280000
14.433000 5.285000
14.436000 5.265000
14.439000 5.260000
14.442000 5.255000
14.444000 5.270000
14.447000 5.285000
14.450000 5.275000
14.453000 5.255000
14.456000 5.250000
14.458000 5.255000
14.461000 5.275000
14.464000 5.270000
14.467000 5.255000
14.469000 5.255000
14.472000 5.245000
14.475000 5.250000
14.478000 5.265000
14.481000 5.260000
14.483000 5.265000
14.486000 5.255000
14.489000 5.255000
14.492000 5.255000
14.494000 5.275000
14.497000 5.270000
14.500000 5.255000
14.503000 5.245000
14.506000 5.240000
14.508000 5.260000
14.511000 5.265000
14.514000 5.270000
14.517000 5.265000
14.519000 5.250000
14.522000 5.235000
14.525000 5.255000
14.528000 5.250000
14.531000 5.265000
14.533000 5.255000
14.536000 5.260000
14.539000 5.245000
14.542000 5.260000
14.544000 5.265000
14.547000 5.275000
14.550000 5.265000
14.553000 5.245000
14.556000 5.250000
14.558000 5.265000
14.561000 5.260000
14.564000 5.265000
14.567000 5.265000
14.569000 5.250000
14.572000 5.240000
14.575000 5.245000
14.578000 5.260000
14.581000 5.270000
14.583000 5.260000
14.586000 5.255000
14.589000 5.280000
14.592000 5.295000
14.594000 5.310000
14.597000 5.325000
14.600000 5.340000
14.603000 5.335000
14.606000 5.330000
14.608000 5.340000
14.611000 5.345000
14.614000 5.350000
14.617000 5.340000
14.619000 5.315000
14.622000 5.290000
14.625000 5.295000
14.628000 5.290000
14.631000 5.265000
14.633000 5.275000
14.636000 5.260000
14.639000 5.250000
14.642000 5.260000
14.644000 5.275000
14.647000 5.280000
14.650000 5.285000
14.653000 5.270000
14.656000 5.250000
14.658000 5.250000
14.661000 5.260000
14.664000 5.245000
14.667000 5.250000
14.669000 5.245000
14.672000 5.210000
14.675000 5.205000
14.678000 5.215000
14.681000 5.215000
14.683000 5.210000
14.686000 5.190000
14.689000 5.180000
14.692000 5.190000
14.694000 5.205000
14.697000 5.200000
14.700000 5.195000
14.703000 5.190000
14.706000 5.190000
14.708000 5.205000
14.711000 5.210000
14.714000 5.225000
14.717000 5.215000
14.719000 5.190000
14.722000 5.175000
14.725000 5.190000
14.728000 5.190000
14.731000 5.195000
14.733000 5.195000
14.736000 5.175000
14.739000 5.175000
14.742000 5.185000
14.744000 5.190000
14.747000 5.190000
14.750000 5.180000
14.753000 5.170000
14.756000 5.165000
14.758000 5.175000
14.761000 5.180000
14.764000 5.175000
14.767000 5.185000
14.769000 5.165000
14.772000 5.175000
14.775000 5.185000
14.778000 5.190000
14.781000 5.170000
14.783000 5.130000
14.786000 5.065000
14.789000 4.960000
14.792000 4.855000
14.794000 4.725000
14.797000 4.570000
14.800000 4.355000
14.803000 4.090000
14.806000 3.795000
14.808000 3.570000
14.811000 3.475000
14.814000 3.495000
14.817000 3.560000
14.819000 3.605000
14.822000 3.635000
14.825000 3.685000
14.828000 3.745000
14.831000 3.810000
14.833000 3.830000
14.836000 3.845000
14.839000 3.860000
14.842000 3.900000
14.844000 3.960000
14.847000 4.015000
14.850000 4.075000
14.853000 4.120000
14.856000 4.180000
14.858000 4.245000
14.861000 4.310000
14.864000 4.370000
14.867000 4.470000
14.869000 4.555000
14.872000 4.650000
14.875000 4.750000
14.878000 4.860000
14.881000 4.955000
14.883000 5.015000
14.886000 5.075000
14.889000 5.115000
14.892000 5.200000
14.894000 5.265000
14.897000 5.320000
14.900000 5.345000
14.903000 5.370000
14.906000 5.395000
14.908000 5.420000
14.911000 5.435000
14.914000 5.450000
14.917000 5.450000
14.919000 5.465000
14.922000 5.465000
14.925000 5.485000
14.928000 5.495000
14.931000 5.505000
14.933000 5.500000
14.936000 5.520000
14.939000 5.510000
14.942000 5.525000
14.944000 5.530000
14.947000 5.540000
14.950000 5.545000
14.953000 5.530000
14.956000 5.530000
14.958000 5.540000
14.961000 5.545000
14.964000 5.555000
14.967000 5.555000
14.969000 5.545000
14.972000 5.545000
14.975000 5.570000
14.978000 5.575000
14.981000 5.580000
14.983000 5.585000
14.986000 5.575000
14.989000 5.570000
14.992000 5.575000
14.994000 5.575000
14.997000 5.595000
